---
Mammal:            human
Fs:                128
Integration_level: electrocardiogram

Channels:

    - type:   peak
      name:   interval
      unit:   index
      enable: yes

---

71
152
231
313
395
477
561
647
730
814
898
980
1063
1146
1231
1312
1394
1476
1560
1640
1722
1803
1884
1965
2045
2126
2204
2282
2359
2437
2515
2593
2672
2748
2825
2903
2983
3062
3141
3224
3303
3385
3468
3551
3632
3714
3795
3876
3954
4033
4111
4187
4264
4341
4417
4493
4569
4647
4727
4811
4893
4972
5051
5130
5211
5291
5371
5452
5533
5611
5688
5767
5849
5932
6016
6100
6183
6265
6346
6428
6507
6588
6669
6750
6830
6908
6987
7066
7148
7227
7307
7388
7469
7549
7630
7714
7797
7878
7961
8045
8127
8208
8285
8365
8445
8530
8614
8697
8779
8861
8942
9018
9093
9169
9245
9324
9408
9492
9580
9667
9754
9842
9929
10019
10108
10198
10287
10377
10467
10557
10645
10734
10816
10900
10983
11065
11141
11218
11301
11388
11476
11566
11656
11745
11831
11912
11991
12067
12144
12224
12304
12383
12472
12563
12655
12747
12834
12919
13005
13092
13180
13265
13347
13429
13510
13595
13680
13771
13862
13955
14049
14139
14232
14325
14415
14510
14604
14698
14795
14891
14983
15074
15160
15248
15336
15425
15512
15600
15688
15778
15865
15953
16043
16134
16223
16316
16407
16499
16587
16678
16769
16860
16949
17036
17118
17204
17290
17376
17463
17553
17641
17730
17819
17907
17993
18080
18166
18252
18333
18415
18496
18578
18659
18741
18824
18909
18995
19077
19162
19246
19332
19416
19497
19575
19653
19729
19807
19887
19966
20048
20131
20215
20296
20376
20454
20530
20605
20678
20751
20826
20909
20998
21083
21169
21257
21346
21435
21525
21615
21704
21793
21881
21966
22053
22142
22234
22326
22418
22507
22591
22673
22758
22843
22930
23021
23114
23204
23295
23388
23483
23574
23664
23754
23840
23926
24010
24094
24173
24250
24327
24402
24479
24556
24633
24712
24793
24872
24944
25016
25089
25161
25237
25313
25390
25462
25534
25605
25744
25813
25884
25955
26025
26094
26163
26234
26306
26382
26460
26506
26544
26612
26689
26764
26841
26915
26990
27064
27139
27217
27291
27365
27436
27509
27540
27583
27662
27740
27824
27912
27996
28083
28166
28247
28330
28416
28503
28590
28675
28758
28841
28921
28999
29078
29158
29242
29329
29412
29493
29575
29656
29735
29810
29887
29961
30036
30113
30192
30276
30363
30457
30549
30642
30736
30831
30927
31023
31119
31215
31311
31405
31488
31566
31643
31719
31794
31868
31943
32018
32097
32174
32254
32334
32415
32497
32577
32652
32729
32803
32878
32953
33029
33106
33183
33258
33334
33412
33492
33574
33659
33742
33829
33917
34004
34094
34184
34268
34353
34436
34519
34599
34676
34754
34832
34910
34988
35067
35145
35225
35306
35387
35466
35545
35625
35703
35782
35861
35938
36017
36095
36174
36254
36333
36413
36494
36573
36653
36733
36814
36895
36977
37058
37140
37222
37304
37386
37468
37549
37629
37709
37788
37869
37951
38030
38112
38191
38269
38347
38423
38498
38573
38652
38731
38813
38893
38977
39059
39140
39219
39300
39379
39458
39538
39616
39698
39782
39862
39943
40024
40103
40181
40260
40338
40418
40497
40575
40655
40735
40814
40892
40970
41052
41133
41215
41299
41385
41472
41555
41634
41711
41787
41868
41948
42035
42128
42219
42313
42411
42505
42595
42692
42788
42880
42970
43058
43145
43228
43314
43397
43478
43562
43648
43730
43814
43897
43981
44065
44150
44233
44314
44395
44474
44555
44635
44714
44794
44874
44957
45038
45120
45202
45284
45367
45451
45533
45616
45699
45783
45865
45949
46032
46112
46192
46272
46352
46430
46508
46587
46669
46749
46837
46924
47010
47097
47185
47270
47356
47444
47526
47611
47697
47783
47865
47946
48026
48106
48184
48263
48344
48424
48504
48586
48669
48751
48835
48917
48998
49080
49162
49246
49327
49409
49493
49574
49656
49736
49813
49893
49973
50056
50139
50222
50304
50384
50464
50543
50622
50702
50782
50861
50940
51020
51099
51179
51256
51334
51413
51491
51568
51645
51720
51795
51869
51943
52019
52095
52171
52248
52325
52401
52477
52559
52637
52716
52794
52872
52948
53023
53099
53175
53249
53326
53402
53476
53550
53625
53702
53778
53854
53930
54007
54084
54160
54237
54313
54390
54465
54540
54612
54686
54760
54834
54910
54988
55066
55144
55223
55304
55387
55466
55547
55629
55710
55790
55871
55954
56035
56117
56200
56283
56367
56451
56538
56625
56710
56799
56891
56979
57067
57156
57247
57332
57418
57507
57593
57677
57763
57849
57933
58018
58104
58191
58275
58361
58448
58534
58617
58704
58792
58878
58964
59053
59139
59224
59310
59397
59483
59569
59658
59748
59833
59924
60013
60101
60188
60279
60372
60462
60559
60656
60747
60842
60938
61028
61119
61215
61307
61399
61498
61593
61684
61782
61879
61970
62068
62164
62258
62355
62455
62549
62646
62744
62838
62935
63036
63134
63229
63332
63431
63525
63627
63730
63827
63926
64026
64125
64219
64325
64430
64528
64625
64719
64808
64898
64984
65066
65150
65237
65324
65413
65504
65590
65682
65772
65862
65956
66057
66157
66255
66362
66465
66570
66676
66781
66888
66996
67105
67213
67322
67431
67539
67650
67761
67871
67983
68092
68201
68310
68417
68525
68632
68739
68844
68950
69056
69161
69265
69369
69467
69561
69662
69766
69867
69975
70079
70183
70289
70395
70499
70604
70709
70811
70914
71017
71118
71221
71314
71409
71502
71600
71702
71799
71899
72003
72109
72208
72308
72404
72502
72599
72699
72798
72893
72988
73080
73174
73268
73363
73454
73544
73638
73732
73823
73908
73992
74084
74175
74264
74347
74431
74520
74609
74698
74788
74874
74962
75049
75136
75221
75305
75386
75467
75547
75634
75720
75814
75910
75999
76088
76184
76281
76372
76470
76569
76666
76759
76857
76951
77044
77133
77226
77326
77427
77519
77623
77724
77821
77927
78034
78134
78230
78329
78427
78523
78622
78720
78811
78909
79004
79097
79185
79275
79364
79453
79542
79634
79729
79822
79919
80015
80109
80201
80296
80388
80475
80565
80657
80746
80833
80924
81012
81096
81181
81267
81354
81439
81530
81620
81705
81798
81891
81985
82074
82169
82263
82355
82446
82542
82634
82720
82814
82907
82999
83087
83182
83276
83367
83462
83558
83646
83737
83823
83906
83992
84077
84170
84269
84362
84459
84557
84651
84750
84850
84944
85043
85142
85233
85334
85432
85523
85625
85727
85821
85918
86017
86115
86209
86307
86405
86495
86594
86694
86789
86885
86987
87085
87178
87277
87379
87474
87577
87681
87772
87866
87959
88055
88145
88241
88336
88429
88522
88618
88714
88805
88900
88996
89092
89185
89285
89383
89477
89575
89673
89766
89858
89951
90045
90133
90222
90312
90404
90493
90587
90681
90778
90872
90964
91057
91151
91241
91333
91427
91521
91611
91703
91799
91889
91979
92069
92161
92250
92343
92436
92525
92610
92694
92774
92853
92933
93015
93095
93179
93261
93342
93426
93510
93596
93684
93772
93864
93954
94041
94136
94228
94317
94412
94508
94599
94696
94793
94886
94984
95079
95172
95269
95365
95456
95550
95644
95738
95838
95933
96027
96125
96222
96316
96414
96510
96604
96701
96798
96892
96996
97096
97195
97303
97410
97511
97619
97729
97833
97944
98064
98175
98282
98389
98490
98588
98688
98788
98884
98986
99086
99182
99282
99380
99476
99577
99677
99772
99874
99974
100070
100171
100273
100369
100471
100572
100667
100766
100864
100959
101055
101153
101248
101342
101442
101543
101639
101734
101836
101938
102035
102137
102239
102338
102441
102547
102645
102748
102849
102947
103048
103153
103252
103356
103462
103562
103664
103767
103863
103961
104061
104160
104262
104366
104464
104566
104666
104761
104863
104964
105060
105163
105264
105359
105458
105559
105654
105758
105860
105955
106058
106161
106257
106355
106459
106555
106657
106756
106849
106953
107062
107170
107269
107377
107488
107590
107697
107801
107901
108005
108111
108213
108314
108419
108525
108622
108727
108829
108925
109029
109132
109230
109337
109446
109549
109650
109757
109866
109967
110075
110183
110284
110393
110503
110604
110711
110815
110913
111017
111130
111234
111342
111458
111568
111674
111785
111891
111993
112101
112211
112312
112421
112531
112633
112739
112843
112944
113048
113153
113252
113349
113451
113549
113646
113748
113848
113946
114048
114151
114248
114354
114460
114560
114664
114770
114870
114975
115082
115184
115287
115391
115491
115593
115694
115791
115889
115990
116090
116186
116289
116383
116474
116565
116659
116758
116860
116956
117057
117159
117253
117351
117446
117540
117642
117745
117841
117942
118044
118141
118238
118337
118433
118527
118625
118720
118814
118913
119014
119109
119209
119311
119410
119513
119615
119711
119816
119921
120020
120126
120237
120340
120446
120551
120648
120747
120846
120941
121042
121144
121238
121338
121438
121535
121634
121736
121833
121933
122034
122129
122228
122330
122430
122531
122636
122744
122844
122950
123054
123152
123251
123351
123449
123545
123648
123746
123842
123944
124041
124136
124235
124335
124431
124536
124640
124741
124845
124950
125050
125155
125265
125368
125477
125589
125692
125802
125915
126021
126133
126248
126357
126464
126562
126655
126759
126858
126965
127073
127174
127278
127388
127490
127590
127694
127797
127894
128001
128112
128212
128317
128424
128523
128626
128733
128834
128933
129038
129138
129236
129338
129432
129526
129625
129728
129827
129932
130038
130136
130241
130344
130442
130543
130648
130745
130847
130950
131047
131151
131255
131354
131453
131555
131651
131748
131848
131945
132040
132139
132242
132338
132438
132537
132632
132731
132833
132929
133030
133133
133231
133332
133438
133543
133643
133748
133855
133953
134056
134160
134260
134360
134466
134567
134665
134766
134865
134959
135056
135155
135250
135346
135444
135537
135632
135729
135828
135920
136018
136114
136205
136295
136383
136467
136558
136649
136745
136849
136952
137050
137153
137256
137353
137456
137563
137663
137772
137882
137987
138092
138201
138306
138402
138505
138607
138705
138804
138904
139003
139099
139203
139304
139401
139502
139602
139699
139798
139901
140003
140103
140206
140310
140407
140509
140611
140709
140813
140919
141023
141122
141223
141330
141428
141530
141627
141721
141816
141917
142016
142112
142216
142321
142421
142526
142632
142734
142836
142944
143052
143153
143259
143366
143467
143571
143678
143778
143880
143984
144083
144178
144279
144386
144487
144589
144695
144797
144895
144997
145102
145201
145302
145404
145505
145600
145699
145798
145893
145994
146097
146197
146297
146395
146488
146582
146680
146774
146866
146960
147051
147141
147239
147337
147434
147532
147632
147728
147825
147924
148021
148123
148234
148349
148456
148563
148670
148769
148869
148968
149063
149162
149267
149368
149467
149571
149672
149768
149864
149956
150041
150125
150221
150323
150420
150521
150621
150716
150815
150914
151008
151102
151196
151288
151375
151463
151552
151642
151730
151816
151899
151982
152066
152152
152240
152330
152426
152519
152614
152714
152811
152901
152998
153092
153185
153276
153373
153471
153563
153657
153752
153853
153949
154044
154136
154221
154308
154398
154489
154578
154670
154764
154860
154952
155042
155137
155231
155321
155409
155502
155593
155679
155762
155853
155942
156036
156133
156230
156324
156417
156514
156614
156718
156817
156925
157029
157133
157237
157342
157448
157552
157656
157760
157864
157969
158074
158180
158285
158390
158494
158590
158676
158761
158844
158928
159023
159115
159217
159325
159431
159533
159641
159750
159851
159956
160060
160160
160264
160364
160460
160553
160652
160748
160842
160941
161043
161139
161242
161350
161454
161562
161669
161771
161876
161983
162083
162188
162293
162391
162493
162592
162687
162786
162886
162984
163083
163184
163278
163377
163474
163566
163661
163758
163856
163951
164049
164145
164238
164334
164431
164524
164617
164715
164816
164908
165005
165104
165202
165298
165397
165496
165591
165693
165790
165885
165980
166083
166186
166285
166387
166490
166585
166685
166784
166879
166977
167078
167178
167275
167378
167480
167576
167676
167776
167870
167969
168067
168161
168259
168359
168456
168561
168670
168774
168875
168982
169093
169196
169303
169410
169516
169614
169714
169811
169904
170003
170100
170195
170294
170392
170487
170586
170684
170775
170870
170964
171055
171147
171242
171335
171429
171522
171614
171708
171805
171905
172001
172102
172207
172305
172403
172508
172610
172709
172812
172912
173008
173108
173205
173296
173392
173492
173597
173696
173801
173910
174012
174117
174222
174323
174422
174528
174637
174739
174845
174948
175043
175140
175237
175334
175423
175509
175595
175680
175779
175879
175976
176082
176192
176295
176400
176506
176608
176703
176802
176903
176999
177100
177200
177297
177401
177503
177600
177699
177796
177892
177986
178084
178187
178284
178388
178490
178590
178687
178792
178898
178998
179106
179214
179316
179415
179520
179628
179728
179836
179940
180038
180137
180240
180345
180445
180546
180652
180756
180854
180957
181064
181161
181259
181360
181462
181556
181656
181758
181855
181952
182054
182159
182259
182356
182458
182563
182660
182761
182867
182971
183069
183168
183270
183374
183470
183572
183673
183772
183872
183977
184079
184178
184282
184387
184484
184583
184685
184787
184882
184980
185081
185182
185276
185376
185477
185574
185678
185783
185887
185988
186093
186200
186299
186399
186501
186601
186695
186796
186898
186996
187094
187195
187293
187388
187488
187588
187683
187783
187886
187987
188085
188188
188293
188394
188494
188599
188705
188805
188910
189018
189120
189226
189333
189437
189538
189646
189753
189854
189960
190069
190172
190276
190385
190493
190595
190700
190806
190904
191008
191114
191218
191316
191413
191511
191604
191696
191790
191885
191976
192065
192151
192236
192328
192418
192517
192614
192706
192800
192899
192997
193090
193185
193280
193377
193469
193567
193664
193757
193849
193945
194043
194137
194238
194340
194441
194534
194629
194726
194824
194918
195012
195113
195215
195311
195411
195509
195611
195705
195805
195902
195992
196078
196167
196257
196345
196436
196526
196612
196700
196787
196873
196960
197050
197139
197226
197318
197410
197498
197592
197686
197775
197869
197965
198061
198151
198245
198339
198428
198519
198609
198694
198784
198873
198960
199048
199136
199224
199316
199411
199508
199602
199695
199788
199880
199965
200055
200144
200234
200324
200410
200500
200589
200678
200765
200854
200945
201034
201126
201221
201318
201410
201508
201603
201694
201784
201878
201973
202064
202159
202254
202347
202438
202532
202627
202718
202810
202904
202994
203082
203172
203261
203348
203437
203528
203618
203704
203795
203884
203971
204056
204140
204221
204301
204383
204469
204558
204648
204734
204827
204920
205008
205096
205188
205282
205372
205465
205559
205650
205739
205828
205916
206000
206084
206166
206250
206336
206421
206504
206582
206668
206752
206839
206928
207016
207101
207190
207278
207367
207453
207541
207627
207712
207795
207881
207970
208059
208144
208231
208318
208403
208491
208584
208683
208780
208877
208979
209082
209180
209285
209390
209493
209593
209700
209808
209909
210010
210109
210208
210300
210399
210499
210598
210693
210792
210892
210987
211086
211181
211273
211368
211465
211564
211658
211757
211851
211940
212030
212113
212199
212281
212362
212443
212525
212606
212688
212771
212852
212938
213024
213111
213197
213286
213376
213464
213551
213641
213730
213817
213906
213998
214088
214178
214267
214353
214442
214530
214615
214703
214790
214875
214960
215046
215133
215217
215299
215382
215465
215549
215636
215726
215817
215903
215993
216084
216173
216260
216346
216429
216516
216604
216694
216786
216876
216966
217061
217157
217248
217344
217444
217540
217631
217727
217822
217912
218001
218087
218171
218256
218340
218425
218512
218597
218688
218781
218873
218962
219055
219144
219234
219324
219416
219508
219600
219690
219780
219872
219960
220041
220124
220205
220285
220366
220448
220530
220614
220697
220781
220867
220954
221037
221124
221210
221300
221386
221473
221562
221652
221739
221833
221930
222023
222121
222224
222319
222412
222510
222605
222698
222793
222890
222987
223082
223175
223267
223362
223457
223546
223638
223730
223821
223906
223998
224087
224174
224263
224355
224445
224534
224619
224705
224790
224874
224962
225051
225140
225231
225327
225423
225513
225600
225684
225765
225847
225933
226025
226118
226209
226301
226389
226475
226556
226637
226720
226802
226885
226971
227058
227141
227222
227302
227382
227464
227547
227629
227712
227798
227884
227967
228048
228133
228216
228297
228380
228464
228551
228633
228718
228805
228894
228977
229060
229142
229225
229308
229390
229472
229557
229645
229732
229815
229896
229978
230062
230147
230232
230312
230393
230476
230558
230643
230726
230809
230893
230981
231068
231158
231248
231334
231415
231497
231583
231670
231758
231845
231930
232012
232097
232183
232264
232343
232422
232505
232588
232669
232752
232843
232935
233023
233113
233202
233293
233377
233463
233549
233634
233723
233812
233898
233983
234072
234163
234256
234345
234433
234522
234608
234695
234783
234870
234965
235057
235148
235237
235331
235424
235515
235612
235707
235800
235889
235978
236065
236147
236231
236312
236390
236471
236555
236641
236729
236813
236901
236986
237073
237157
237245
237335
237427
237519
237621
237716
237812
237906
238000
238090
238179
238267
238356
238446
238540
238634
238728
238819
238911
239004
239092
239175
239260
239344
239439
239532
239626
239720
239804
239887
239971
240055
240148
240246
240340
240430
240519
240608
240696
240785
240874
240966
241054
241141
241227
241313
241401
241485
241573
241661
241755
241849
241948
242047
242145
242240
242333
242426
242519
242609
242698
242784
242866
242947
243031
243113
243197
243278
243367
243451
243534
243617
243702
243795
243885
243978
244068
244158
244261
244365
244468
244571
244675
244779
244882
244984
245085
245179
245270
245364
245459
245556
245645
245732
245821
245907
245994
246079
246175
246270
246372
246472
246563
246649
246734
246826
246914
247001
247092
247195
247298
247403
247507
247612
247718
247826
247933
248042
248150
248258
248367
248475
248583
248692
248800
248908
249015
249121
249220
249304
249395
249481
249572
249671
249775
249878
249977
250078
250184
250286
250382
250483
250581
250674
250767
250859
250958
251057
251152
251245
251336
251431
251523
251617
251707
251796
251889
251983
252073
252163
252256
252350
252451
252552
252652
252746
252833
252918
253005
253095
253186
253282
253382
253479
253576
253674
253764
253853
253944
254039
254135
254231
254328
254423
254521
254618
254716
254815
254907
254993
255079
255168
255254
255345
255434
255516
255600
255692
255786
255882
255978
256071
256159
256253
256348
256440
256535
256632
256727
256819
256905
256990
257077
257172
257267
257366
257456
257554
257645
257752
257856
257959
258061
258162
258262
258362
258461
258558
258652
258745
258832
258925
259018
259120
259218
259318
259417
259517
259618
259718
259820
259920
260021
260120
260219
260317
260407
260496
260586
260673
260761
260848
260934
261022
261106
261195
261278
261363
261449
261534
261620
261706
261792
261876
261961
262047
262138
262232
262320
262404
262498
262589
262684
262780
262880
262975
263073
263172
263267
263363
263462
263566
263666
263761
263853
263947
264040
264134
264226
264314
264405
264497
264588
264680
264779
264877
264976
265077
265172
265267
265362
265457
265557
265653
265742
265829
265917
266001
266088
266176
266270
266367
266463
266559
266660
266759
266858
266959
267060
267163
267264
267366
267466
267565
267665
267764
267863
267962
268061
268157
268245
268331
268420
268515
268614
268713
268811
268909
269008
269109
269209
269309
269409
269510
269609
269706
269804
269900
269997
270082
270167
270254
270347
270442
270536
270628
270721
270815
270907
271000
271094
271190
271289
271389
271483
271580
271676
271774
271872
271964
272056
272156
272256
272354
272451
272549
272647
272744
272842
272938
273034
273130
273224
273318
273413
273500
273581
273664
273750
273840
273934
274029
274124
274218
274310
274399
274488
274571
274652
274738
274829
274925
275018
275111
275205
275298
275393
275488
275581
275667
275751
275834
275918
276004
276091
276179
276262
276343
276422
276503
276585
276667
276748
276826
276900
276976
277052
277129
277204
277278
277356
277432
277508
277584
277661
277738
277814
277889
277962
278037
278114
278194
278273
278349
278428
278507
278586
278665
278746
278827
278908
278989
279068
279148
279225
279302
279371
279457
279536
279613
279690
279765
279848
279928
280008
280089
280170
280249
280327
280403
280477
280551
280625
280699
280773
280846
280920
280994
281068
281144
281218
281295
281370
281446
281521
281600
281679
281755
281835
281913
281990
282066
282143
282221
282298
282375
282451
282527
282604
282680
282755
282830
282907
282987
283067
283150
283234
283315
283396
283475
283554
283630
283706
283783
283858
283935
284010
284086
284161
284236
284311
284385
284458
284532
284608
284688
284766
284843
284922
285002
285081
285156
285233
285313
285393
285475
285557
285637
285718
285797
285877
285960
286046
286131
286218
286308
286393
286478
286563
286644
286725
286814
286902
287002
287101
287196
287291
287388
287478
287569
287662
287752
287837
287928
288018
288111
288198
288291
288385
288475
288564
288656
288743
288829
288917
289006
289090
289174
289261
289346
289426
289506
289588
289671
289758
289845
289931
290017
290106
290196
290282
290374
290465
290552
290638
290724
290811
290908
291007
291105
291193
291299
291402
291505
291609
291714
291819
291926
292034
292138
292242
292346
292449
292556
292662
292769
292878
292981
293089
293198
293307
293413
293523
293632
293737
293846
293954
294060
294168
294276
294382
294490
294599
294690
294786
294878
294966
295064
295157
295258
295358
295455
295557
295657
295756
295850
295946
296046
296139
296240
296346
296452
296553
296665
296772
296880
296988
297098
297206
297315
297424
297529
297635
297742
297848
297954
298059
298166
298272
298377
298483
298588
298693
298796
298888
298980
299086
299183
299279
299386
299491
299597
299701
299809
299916
300020
300126
300232
300337
300444
300549
300654
300759
300865
300970
301075
301180
301283
301388
301491
301584
301683
301780
301883
301992
302099
302204
302311
302418
302523
302628
302733
302838
302943
303047
303152
303256
303360
303465
303569
303674
303777
303881
303986
304090
304194
304297
304401
304504
304607
304708
304811
304914
305016
305119
305221
305323
305425
305526
305627
305721
305822
305925
306028
306131
306233
306335
306437
306539
306639
306739
306840
306942
307043
307145
307246
307346
307446
307546
307646
307746
307846
307946
308045
308145
308227
308307
308384
308468
308556
308649
308743
308837
308931
309021
309105
309192
309279
309371
309462
309551
309643
309736
309825
309911
310000
310097
310199
310301
310400
310495
310586
310676
310764
310853
310939
311023
311105
311190
311275
311357
311438
311518
311596
311674
311751
311829
311908
311988
312069
312150
312236
312324
312410
312495
312580
312665
312753
312842
312926
313013
313103
313197
313288
313374
313462
313550
313639
313724
313815
313908
314003
314091
314183
314276
314367
314455
314545
314634
314719
314803
314885
314966
315047
315126
315207
315295
315380
315463
315542
315623
315704
315785
315863
315942
316022
316104
316194
316290
316386
316474
316558
316644
316734
316827
316916
317018
317119
317222
317313
317401
317512
317621
317732
317844
317958
318071
318185
318296
318399
318516
318629
318744
318858
318972
319086
319200
319311
319424
319535
319636
319739
319846
319954
320057
320166
320277
320382
320490
320600
320708
320812
320922
321032
321134
321245
321359
321466
321580
321694
321800
321912
322020
322118
322226
322336
322456
322569
322681
322796
322908
323020
323133
323245
323358
323471
323584
323698
323811
323926
324040
324157
324274
324387
324503
324621
324736
324851
324968
325087
325201
325320
325437
325552
325669
325785
325899
326014
326128
326241
326351
326463
326577
326689
326801
326915
327028
327140
327253
327366
327478
327590
327701
327814
327925
328038
328152
328264
328378
328491
328602
328715
328827
328937
329046
329154
329264
329371
329476
329583
329690
329798
329905
330011
330118
330226
330336
330444
330550
330659
330768
330877
330985
331095
331207
331318
331428
331540
331654
331766
331876
331988
332100
332211
332323
332434
332546
332657
332769
332880
332992
333103
333214
333324
333433
333544
333654
333762
333871
333982
334091
334198
334306
334414
334521
334629
334736
334843
334950
335056
335163
335267
335372
335477
335576
335687
335793
335899
336005
336113
336224
336334
336442
336553
336664
336775
336883
336993
337104
337214
337323
337429
337538
337648
337757
337866
337976
338087
338198
338305
338415
338525
338634
338743
338852
338961
339070
339179
339289
339399
339506
339616
339725
339833
339939
340046
340154
340261
340367
340475
340582
340690
340798
340906
341014
341121
341231
341341
341450
341557
341666
341775
341883
341992
342101
342208
342318
342427
342537
342646
342755
342865
342973
343081
343191
343299
343408
343516
343625
343733
343841
343949
344056
344162
344268
344374
344481
344586
344693
344800
344905
345012
345118
345223
345329
345435
345541
345646
345751
345858
345963
346070
346176
346284
346389
346495
346602
346707
346811
346916
347021
347125
347230
347335
347438
347542
347647
347753
347858
347962
348068
348171
348276
348382
348486
348592
348697
348802
348909
349016
349122
349229
349336
349442
349550
349658
349763
349869
349976
350083
350188
350294
350400
350505
350610
350716
350821
350927
351031
351136
351232
351329
351423
351526
351630
351731
351829
351934
352041
352147
352252
352357
352462
352567
352668
352765
352869
352973
353074
353175
353280
353388
353484
353586
353688
353794
353892
353998
354106
354214
354321
354427
354533
354637
354743
354848
354952
355057
355162
355268
355373
355478
355585
355690
355795
355902
356008
356115
356220
356326
356431
356537
356642
356747
356853
356959
357065
357171
357276
357383
357488
357594
357700
357805
357909
358013
358118
358222
358326
358430
358534
358638
358741
358846
358952
359056
359160
359264
359368
359472
359577
359682
359786
359891
359996
360100
360205
360309
360412
360516
360621
360725
360829
360935
361038
361142
361245
361343
361436
361533
361634
361732
361836
361939
362038
362142
362245
362344
362447
362550
362649
362754
362856
362964
363073
363173
363278
363381
363479
363583
363688
363786
363889
363992
364087
364186
364286
364379
364478
364577
364676
364775
364877
364983
365080
365181
365285
365386
365490
365595
365692
365795
365898
366001
366105
366210
366311
366414
366520
366623
366720
366825
366930
367034
367130
367233
367340
367444
367545
367650
367758
367860
367972
368084
368192
368300
368408
368517
368626
368735
368842
368949
369057
369165
369270
369376
369482
369589
369695
369799
369903
370007
370109
370213
370306
370393
370480
370574
370667
370768
370870
370967
371067
371168
371275
371374
371477
371581
371689
371788
371891
371996
372100
372197
372301
372404
372504
372600
372700
372800
372895
372997
373100
373198
373297
373395
373491
373577
373662
373746
373830
373912
373996
374079
374163
374246
374329
374412
374497
374581
374664
374744
374826
374907
374984
375061
375139
375220
375299
375380
375461
375540
375623
375703
375786
375867
375949
376031
376113
376194
376274
376354
376434
376516
376596
376678
376760
376841
376922
377004
377085
377166
377246
377325
377406
377486
377565
377643
377722
377800
377880
377960
378042
378127
378209
378293
378376
378460
378542
378625
378709
378794
378880
378964
379049
379135
379221
379306
379394
379483
379568
379653
379744
379837
379926
380013
380097
380186
380273
380364
380454
380543
380632
380722
380813
380899
380991
381083
381182
381279
381371
381468
381565
381662
381754
381841
381932
382025
382120
382216
382304
382392
382477
382572
382672
382770
382862
382957
383053
383152
383247
383340
383438
383539
383644
383746
383849
383954
384059
384162
384257
384350
384446
384549
384658
384759
384865
384972
385082
385187
385292
385398
385505
385607
385711
385816
385913
386015
386120
386228
386337
386434
386531
386621
386718
386829
386937
387044
387152
387259
387366
387470
387565
387668
387775
387881
387979
388078
388183
388291
388395
388500
388607
388704
388808
388916
389023
389124
389232
389340
389453
389559
389658
389766
389877
389989
390095
390205
390316
390424
390529
390637
390748
390862
390965
391072
391180
391281
391382
391489
391597
391698
391798
391905
392018
392127
392236
392345
392454
392562
392668
392774
392880
392985
393090
393195
393301
393405
393512
393617
393723
393830
393936
394043
394147
394253
394358
394464
394569
394673
394778
394882
394985
395090
395193
395295
395383
395480
395574
395667
395753
395837
395930
396030
396133
396238
396343
396447
396551
396655
396756
396846
396939
397035
397137
397244
397347
397452
397556
397660
397766
397872
397978
398082
398188
398294
398400
398506
398612
398717
398821
398925
399030
399130
399216
399308
399404
399495
399592
399690
399793
399900
400003
400098
400196
400296
400395
400489
400586
400685
400783
400882
400973
401067
401163
401264
401361
401458
401557
401657
401756
401847
401937
402024
402108
402195
402287
402381
402479
402570
402664
402761
402861
402961
403056
403146
403241
403340
403441
403549
403648
403753
403861
403967
404075
404180
404287
404395
404501
404607
404713
404819
404926
405033
405141
405248
405354
405462
405569
405676
405781
405887
405993
406100
406206
406312
406417
406522
406627
406732
406837
406942
407045
407148
407252
407354
407450
407551
407648
407752
407858
407960
408060
408163
408266
408372
408465
408559
408657
408757
408864
408965
409068
409169
409275
409374
409475
409577
409682
409787
409888
409982
410074
410169
410266
410366
410466
410567
410667
410765
410861
410954
411044
411131
411220
411319
411419
411516
411618
411726
411834
411932
412023
412117
412214
412313
412410
412502
412596
412691
412780
412870
412960
413050
413142
413230
413320
413411
413505
413599
413693
413786
413871
413957
414041
414122
414205
414285
414369
414456
414539
414622
414712
414808
414902
415000
415095
415191
415280
415369
415459
415548
415634
415723
415817
415910
416000
416097
416194
416288
416383
416476
416571
416667
416756
416841
416924
417006
417103
417204
417309
417414
417522
417631
417740
417849
417949
418045
418145
418245
418339
418442
418551
418652
418749
418853
418961
419056
419152
419255
419358
419452
419555
419662
419766
419869
419979
420092
420194
420300
420415
420522
420622
420730
420842
420944
421055
421167
421278
421387
421502
421620
421731
421849
421969
422085
422204
422325
422446
422565
422686
422805
422917
423035
423152
423262
423383
423501
423610
423732
423850
423961
424081
424198
424307
424424
424544
424657
424776
424898
425014
425127
425248
425370
425480
425604
425725
425842
425959
426078
426195
426312
426432
426550
426667
426785
426905
427024
427143
427262
427379
427496
427609
427720
427817
427907
427999
428090
428178
428269
428367
428479
428588
428695
428802
428914
429025
429135
429245
429297
429461
429572
429680
429783
429887
429992
430099
430205
430312
430423
430534
430646
430761
430879
430994
431110
431226
431344
431459
431573
431690
431805
431920
432037
432155
432270
432384
432500
432617
432732
432850
432968
433083
433197
433310
433419
433512
433620
433733
433838
433952
434062
434171
434281
434391
434503
434612
434723
434835
434949
435062
435175
435286
435398
435511
435625
435737
435850
435963
436076
436188
436302
436412
436526
436640
436752
436864
436979
437095
437209
437324
437439
437553
437665
437778
437891
438003
438117
438230
438342
438453
438566
438680
438793
438904
439017
439132
439245
439356
439471
439584
439698
439811
439924
440038
440150
440262
440375
440488
440603
440715
440830
440945
441057
441171
441285
441399
441512
441626
441741
441855
441968
442082
442197
442310
442425
442541
442653
442766
442881
442992
443105
443218
443330
443442
443553
443664
443776
443887
443998
444110
444223
444334
444446
444559
444672
444785
444897
445008
445120
445231
445340
445444
445541
445641
445741
445841
445950
446060
446167
446276
446385
446494
446601
446710
446819
446926
447033
447140
447247
447356
447462
447569
447676
447783
447893
448001
448110
448217
448326
448436
448543
448652
448760
448868
448978
449087
449194
449302
449411
449519
449627
449734
449843
449951
450060
450169
450276
450387
450497
450607
450715
450824
450935
451041
451150
451257
451365
451472
451579
451686
451792
451899
452007
452115
452223
452331
452439
452548
452656
452765
452873
452981
453089
453196
453304
453410
453518
453626
453734
453840
453947
454055
454161
454268
454374
454482
454589
454697
454805
454913
455020
455128
455235
455340
455440
455539
455645
455743
455845
455951
456062
456171
456279
456388
456498
456607
456716
456824
456933
457042
457149
457257
457367
457474
457584
457692
457801
457909
458017
458126
458234
458340
458448
458555
458663
458770
458878
458987
459094
459203
459311
459420
459527
459636
459745
459854
459961
460070
460179
460288
460394
460503
460611
460719
460826
460932
461040
461146
461253
461360
461467
461574
461681
461787
461892
461998
462105
462212
462318
462425
462532
462639
462746
462854
462961
463067
463175
463282
463388
463494
463600
463707
463814
463917
464022
464121
464210
464295
464388
464494
464600
464706
464812
464920
465027
465135
465243
465351
465458
465563
465670
465777
465882
465987
466092
466198
466305
466412
466518
466625
466732
466840
466947
467056
467164
467272
467379
467487
467596
467704
467810
467919
468027
468135
468241
468349
468457
468564
468671
468777
468883
468990
469097
469205
469310
469417
469524
469630
469737
469843
469948
470053
470159
470264
470370
470475
470580
470686
470794
470899
471006
471113
471219
471325
471433
471540
471646
471753
471860
471966
472073
472180
472285
472391
472497
472604
472709
472814
472921
473027
473132
473237
473343
473448
473553
473660
473766
473871
473973
474075
474170
474269
474365
474471
474576
474678
474781
474887
474990
475096
475202
475306
475411
475515
475619
475723
475827
475929
476032
476135
476239
476343
476447
476552
476655
476761
476866
476970
477077
477182
477287
477393
477499
477603
477706
477810
477911
478014
478117
478218
478322
478425
478527
478631
478736
478840
478944
479050
479152
479256
479360
479463
479568
479671
479775
479879
479982
480086
480189
480294
480398
480501
480605
480709
480813
480916
481021
481125
481229
481333
481438
481543
481646
481753
481859
481965
482073
482180
482288
482394
482501
482609
482714
482819
482925
483031
483136
483241
483346
483450
483555
483661
483767
483872
483978
484084
484187
484293
484398
484504
484609
484715
484821
484926
485032
485138
485241
485346
485451
485555
485660
485764
485868
485973
486078
486183
486287
486393
486498
486603
486708
486813
486919
487022
487128
487234
487340
487446
487552
487658
487764
487871
487978
488083
488190
488296
488402
488507
488611
488709
488799
488897
489000
489106
489212
489316
489422
489527
489632
489738
489843
489948
490052
490157
490261
490364
490470
490575
490682
490787
490894
491001
491107
491215
491322
491429
491535
491642
491749
491855
491959
492065
492171
492276
492382
492489
492594
492702
492809
492915
493021
493127
493232
493338
493443
493549
493652
493757
493863
493966
494071
494175
494280
494383
494488
494593
494696
494801
494906
495009
495114
495219
495324
495429
495534
495639
495743
495849
495953
496057
496161
496265
496370
496473
496578
496683
496786
496890
496995
497099
497204
497310
497415
497521
497629
497734
497841
497947
498052
498158
498266
498372
498477
498583
498689
498794
498901
499006
499111
499206
499305
499405
499499
499601
499703
499798
499900
500003
500101
500197
500293
500395
500498
500592
500698
500804
500907
501009
501114
501217
501310
501412
501509
501603
501688
501780
501870
501971
502076
502180
502282
502389
502496
502602
502708
502814
502919
503026
503123
503219
503314
503413
503515
503615
503713
503818
503928
504028
504133
504241
504342
504446
504551
504657
504755
504861
504969
505069
505177
505285
505384
505488
505593
505687
505791
505895
505992
506095
506198
506295
506400
506504
506598
506700
506802
506896
506997
507099
507196
507300
507403
507505
507606
507711
507815
507911
508015
508118
508216
508318
508419
508519
508617
508718
508819
508913
509013
509116
509211
509313
509416
509513
509608
509708
509812
509907
510009
510112
510215
510312
510416
510523
510620
510725
510829
510925
511025
511127
511226
511324
511427
511529
511627
511731
511831
511933
512037
512133
512236
512339
512436
512542
512643
512733
512830
512938
513047
513150
513257
513363
513462
513569
513677
513779
513883
513989
514085
514187
514290
514387
514485
514588
514691
514787
514888
514991
515093
515191
515291
515393
515498
515592
515680
515782
515887
515996
516104
516210
516316
516423
516528
516631
516723
516823
516922
517019
517119
517223
517328
517426
517529
517632
517736
517841
517944
518038
518135
518232
518333
518437
518534
518635
518736
518830
518935
519040
519148
519255
519356
519465
519574
519682
519784
519890
519996
520093
520197
520295
520398
520502
520599
520704
520808
520904
521007
521107
521200
521289
521388
521491
521588
521693
521798
521898
522002
522103
522205
522301
522400
522498
522594
522691
522791
522894
522990
523093
523192
523294
523390
523492
523596
523697
523795
523899
524007
524109
524210
524314
524418
524516
524619
524719
524817
524913
525016
525118
525214
525315
525416
525520
525615
525717
525819
525919
526016
526120
526222
526318
526420
526525
526623
526726
526832
526928
527031
527138
527235
527339
527443
527541
527646
527749
527850
527954
528060
528157
528259
528360
528461
528556
528656
528758
528856
528963
529070
529169
529275
529382
529481
529587
529692
529788
529893
529998
530097
530202
530300
530395
530492
530592
530699
530807
530910
531018
531128
531230
531340
531449
531557
531665
531771
531880
531989
532096
532205
532315
532423
532533
532642
532749
532857
532966
533074
533182
533291
533398
533506
533614
533720
533828
533933
534039
534146
534250
534356
534461
534567
534674
534780
534883
534990
535092
535189
535283
535381
535486
535590
535688
535797
535905
536006
536114
536220
536322
536426
536530
536628
536730
536832
536928
537028
537130
537232
537327
537427
537529
537626
537729
537832
537933
538032
538136
538241
538336
538437
538539
538642
538743
538847
538951
539045
539146
539247
539350
539445
539549
539652
539750
539850
539951
540048
540142
540243
540341
540433
540529
540621
540707
540802
540904
541001
541093
541187
541284
541386
541488
541588
541682
541779
541879
541974
542072
542174
542273
542371
542478
542588
542693
542803
542918
543021
543130
543235
543341
543435
543531
543630
543732
543835
543933
544037
544143
544247
544354
544461
544565
544666
544773
544885
544988
545097
545207
545319
545425
545540
545652
545760
545874
545986
546095
546206
546319
546428
546540
546652
546762
546874
546985
547095
547207
547318
547426
547535
547644
547754
547860
547967
548070
548173
548275
548384
548496
548602
548715
548827
548938
549049
549160
549271
549381
549491
549601
549709
549818
549928
550035
550145
550253
550361
550468
550573
550679
550785
550892
551000
551105
551213
551322
551428
551537
551645
551753
551860
551969
552078
552186
552293
552402
552511
552620
552728
552837
552949
553057
553168
553279
553389
553498
553606
553713
553821
553928
554036
554141
554244
554334
554433
554534
554633
554743
554852
554956
555064
555165
555275
555383
555489
555596
555703
555809
555916
556023
556129
556235
556342
556447
556552
556657
556761
556867
556972
557078
557184
557290
557396
557502
557609
557715
557820
557929
558036
558143
558251
558359
558465
558572
558679
558785
558892
558999
559105
559214
559321
559427
559535
559642
559750
559858
559966
560072
560181
560289
560395
560502
560609
560716
560823
560929
561036
561143
561251
561359
561467
561574
561680
561787
561895
562002
562108
562215
562322
562427
562534
562642
562749
562857
562967
563073
563181
563288
563394
563499
563605
563711
563818
563925
564033
564140
564246
564354
564462
564568
564675
564782
564886
564992
565098
565203
565310
565415
565521
565629
565736
565843
565949
566056
566164
566270
566379
566486
566592
566700
566808
566916
567023
567130
567237
567343
567450
567556
567663
567770
567878
567987
568094
568202
568312
568419
568528
568637
568745
568854
568963
569069
569177
569284
569390
569496
569602
569706
569811
569916
570020
570121
570218
570319
570416
570523
570628
570726
570832
570939
571041
571150
571258
571365
571474
571582
571688
571797
571905
572006
572104
572206
572312
572411
572519
572627
572727
572835
572935
573034
573140
573243
573342
573451
573560
573660
573767
573875
573974
574080
574185
574287
574398
574504
574608
574718
574826
574926
575032
575137
575236
575344
575451
575553
575660
575767
575867
575971
576076
576173
576277
576383
576480
576580
576681
576782
576877
576980
577083
577180
577282
577383
577480
577581
577682
577779
577880
577976
578065
578153
578244
578341
578437
578529
578627
578727
578820
578921
579022
579118
579219
579319
579418
579520
579623
579723
579818
579919
580022
580125
580233
580343
580445
580551
580658
580760
580868
580977
581081
581188
581296
581400
581498
581600
581703
581798
581898
581998
582097
582192
582294
582397
582494
582598
582704
582806
582917
583030
583137
583247
583357
583466
583575
583682
583790
583898
584005
584111
584217
584322
584427
584532
584638
584743
584849
584956
585058
585148
585232
585313
585398
585484
585571
585660
585755
585846
585941
586029
586113
586196
586276
586358
586441
586522
586599
586676
586756
586834
586915
586995
587075
587154
587232
587311
587390
587470
587548
587626
587705
587784
587862
587940
588021
588098
588175
588251
588326
588402
588476
588551
588625
588702
588780
588859
588939
589021
589102
589182
589263
589341
589419
589497
589579
589663
589750
589836
589918
590000
590084
590174
590257
590338
590421
590507
590595
590683
590772
590860
590945
591029
591114
591198
591280
591363
591443
591524
591605
591684
591765
591844
591923
592002
592081
592158
592234
592311
592388
592468
592549
592630
592711
592795
592879
592960
593040
593117
593199
593282
593366
593447
593531
593616
593699
593784
593866
593948
594027
594106
594188
594267
594347
594428
594508
594587
594667
594746
594825
594905
594987
595067
595145
595229
595312
595397
595482
595565
595649
595733
595814
595898
595980
596062
596142
596224
596303
596382
596459
596536
596617
596694
596773
596851
596928
597004
597079
597155
597230
597311
597390
597469
597548
597628
597708
597787
597865
597943
598021
598098
598176
598254
598332
598410
598487
598561
598636
598712
598792
598872
598950
599028
599106
599183
599258
599335
599413
599491
599567
599644
599721
599797
599873
599951
600028
600104
600182
600257
600333
600407
600481
600554
600625
600698
600773
600846
600920
600996
601073
601147
601223
601299
601379
601453
601528
601604
601681
601754
601830
601904
601979
602052
602126
602199
602272
602346
602421
602494
602568
602643
602718
602790
602863
602935
603008
603081
603152
603224
603295
603367
603440
603511
603583
603655
603727
603798
603870
603941
604010
604080
604150
604220
604290
604362
604432
604505
604578
604652
604724
604796
604872
604946
605020
605093
605168
605241
605315
605390
605461
605533
605604
605677
605750
605820
605890
605960
606030
606099
606166
606234
606303
606373
606442
606510
606580
606652
606722
606792
606862
606934
607005
607076
607148
607218
607289
607362
607431
607501
607572
607641
607710
607779
607849
607918
607988
608057
608126
608194
608262
608331
608401
608471
608541
608610
608679
608751
608821
608890
608961
609031
609099
609169
609238
609307
609374
609442
609510
609576
609643
609709
609775
609842
609908
609976
610043
610110
610178
610249
610318
610391
610463
610534
610604
610677
610751
610822
610895
610967
611039
611111
611183
611254
611324
611395
611467
611538
611610
611683
611756
611828
611899
611969
612039
612110
612181
612249
612319
612390
612460
612529
612597
612666
612737
612808
612877
612955
613041
613126
613207
613285
613364
613440
613515
613592
613667
613742
613816
613889
613963
614036
614108
614180
614253
614324
614393
614461
614530
614598
614665
614731
614799
614868
614936
615004
615072
615142
615210
615278
615347
615418
615487
615557
615626
615697
615767
615837
615909
615977
616048
616120
616190
616261
616332
616404
616475
616545
616615
616688
616762
616834
616904
616976
617047
617118
617191
617263
617335
617407
617480
617552
617623
617694
617765
617836
617905
617972
618040
618110
618181
618251
618321
618392
618462
618530
618599
618668
618736
618804
618872
618941
619009
619077
619146
619214
619282
619350
619418
619487
619555
619623
619693
619763
619831
619900
619968
620036
620103
620172
620239
620304
620370
620438
620503
620569
620635
620702
620767
620833
620899
620965
621030
621096
621161
621226
621293
621360
621428
621496
621563
621630
621696
621762
621829
621895
621962
622031
622100
622167
622234
622301
622370
622436
622503
622569
622635
622701
622767
622833
622899
622965
623033
623104
623172
623240
623311
623382
623453
623522
623592
623623
623665
623735
623804
623871
623940
624010
624084
624159
624231
624303
624375
624446
624517
624586
624657
624728
624799
624870
624939
625008
625078
625145
625213
625281
625352
625423
625492
625565
625638
625713
625785
625861
625940
626016
626092
626170
626247
626321
626394
626470
626545
626619
626697
626773
626849
626925
627006
627086
627164
627247
627334
627418
627498
627581
627669
627756
627839
627926
628011
628092
628178
628267
628352
628433
628514
628596
628675
628752
628833
628910
628985
629056
629128
629203
629284
629364
629441
629522
629601
629683
629761
629842
629922
630003
630081
630160
630237
630314
630389
630462
630535
630607
630676
630748
630819
630894
630968
631039
631112
631184
631256
631327
631397
631467
631536
631606
631674
631741
631808
631878
631946
632015
632082
632149
632216
632282
632351
632424
632494
632565
632636
632704
632774
632843
632911
632978
633046
633114
633179
633245
633312
633376
633441
633506
633570
633633
633697
633762
633826
633890
633955
634021
634085
634148
634213
634278
634346
634412
634479
634546
634611
634677
634745
634812
634879
634946
635016
635084
635150
635216
635282
635347
635413
635481
635550
635617
635682
635748
635815
635881
635947
636013
636078
636143
636206
636270
636334
636395
636458
636520
636582
636645
636709
636771
636833
636894
636955
637017
637080
637145
637209
637271
637334
637398
637461
637526
637591
637655
637721
637788
637853
637920
637987
638055
638123
638191
638257
638324
638390
638459
638528
638601
638674
638745
638818
638894
638971
639050
639128
639206
639283
639362
639437
639512
639588
639666
639743
639819
639901
639981
640057
640135
640216
640299
640386
640474
640555
640635
640714
640795
640879
640958
641035
641115
641198
641282
641363
641446
641533
641618
641700
641784
641871
641954
642031
642124
642208
642294
642375
642453
642526
642600
642676
642757
642837
642913
642995
643078
643161
643239
643320
643402
643488
643569
643645
643718
643793
643868
643944
644025
644110
644198
644283
644370
644456
644533
644609
644690
644776
644865
644951
645039
645127
645214
645302
645390
645479
645565
645655
645743
645831
645920
646010
646099
646188
646277
646367
646457
646547
646636
646726
646816
646907
646998
647091
647180
647272
647358
647435
647512
647592
647676
647766
647853
647941
648028
648115
648199
648276
648354
648434
648526
648613
648706
648797
648887
648978
649070
649161
649253
649346
649438
649531
649623
649714
649806
649897
649989
650082
650176
650271
650365
650460
650555
650651
650746
650841
650935
651029
651124
651218
651311
651404
651496
651589
651682
651774
651868
651961
652055
652147
652241
652333
652425
652516
652609
652701
652793
652884
652976
653068
653161
653252
653344
653437
653530
653622
653716
653808
653901
653994
654088
654182
654277
654373
654469
654564
654659
654753
654847
654935
655024
655118
655212
655307
655401
655497
655593
655690
655787
655884
655980
656077
656174
656271
656370
656467
656566
656665
656764
656864
656963
657061
657159
657258
657356
657456
657555
657654
657752
657849
657947
658045
658143
658240
658337
658433
658530
658625
658720
658816
658912
659010
659108
659205
659301
659398
659494
659590
659685
659780
659874
659969
660062
660155
660247
660339
660431
660523
660616
660709
660801
660893
660979
661059
661139
661228
661319
661409
661500
661592
661684
661778
661873
661969
662066
662159
662252
662345
662425
662504
662585
662668
662750
662835
662925
663015
663105
663198
663290
663383
663477
663573
663670
663767
663865
663963
664062
664160
664259
664356
664452
664549
664646
664742
664838
664934
665031
665128
665224
665322
665417
665515
665611
665708
665803
665898
665993
666086
666180
666274
666368
666461
666548
666633
666721
666814
666905
667000
667096
667191
667285
667381
667477
667571
667669
667765
667859
667953
668046
668137
668229
668322
668409
668493
668588
668681
668775
668868
668962
669057
669152
669247
669342
669435
669524
669610
669703
669796
669886
669978
670066
670159
670250
670343
670434
670519
670601
670682
670760
670838
670919
671003
671089
671182
671272
671363
671453
671540
671619
671695
671771
671849
671931
672021
672111
672198
672287
672377
672468
672558
672649
672740
672832
672922
673013
673103
673195
673286
673378
673469
673561
673653
673746
673837
673931
674023
674113
674199
674284
674366
674444
674522
674601
674683
674765
674844
674933
675026
675123
675217
675312
675405
675501
675596
675692
675787
675883
675977
676073
676167
676264
676360
676457
676553
676650
676746
676843
676940
677037
677136
677234
677332
677428
677523
677617
677711
677806
677900
677995
678091
678186
678281
678379
678476
678574
678671
678767
678864
678961
679058
679155
679252
679349
679446
679543
679640
679736
679832
679919
680012
680111
680207
680303
680400
680497
680595
680694
680790
680887
680978
681061
681142
681226
681319
681413
681505
681598
681692
681774
681862
681951
682041
682131
682219
682306
682392
682477
682562
682648
682733
682815
682902
682989
683076
683166
683258
683351
683445
683540
683628
683719
683811
683909
684003
684098
684193
684290
684384
684482
684579
684675
684771
684868
684965
685061
685158
685253
685348
685436
685524
685611
685700
685786
685873
685959
686044
686125
686205
686283
686362
686441
686518
686599
686680
686762
686846
686932
687018
687104
687191
687276
687359
687439
687521
687600
687683
687763
687847
687931
688018
688101
688184
688264
688347
688431
688513
688594
688674
688754
688833
688914
688994
689072
689151
689227
689303
689378
689454
689531
689610
689690
689768
689847
689925
690004
690083
690162
690243
690323
690404
690482
690560
690640
690722
690805
690887
690965
691045
691123
691205
691291
691380
691470
691559
691645
691728
691812
691891
691973
692056
692142
692228
692316
692404
692493
692580
692667
692753
692838
692922
693004
693087
693171
693255
693339
693424
693505
693588
693671
693760
693845
693931
694018
694107
694195
694281
694372
694461
694546
694635
694721
694808
694896
694986
695079
695166
695255
695347
695435
695525
695617
695703
695787
695872
695959
696045
696132
696218
696306
696393
696480
696568
696659
696750
696843
696940
697032
697123
697211
697300
697391
697485
697579
697674
697765
697865
697968
698064
698161
698269
698365
698460
698556
698645
698738
698829
698921
699007
699095
699184
699276
699374
699469
699562
699658
699757
699861
699961
700056
700155
700255
700350
700445
700544
700647
700741
700840
700939
701031
701121
701205
701290
701376
701467
701557
701650
701744
701842
701938
702026
702109
702201
702292
702387
702487
702586
702685
702780
702870
702955
703044
703129
703218
703305
703393
703481
703571
703662
703752
703838
703925
704012
704098
704185
704273
704366
704461
704554
704644
704736
704830
704921
705014
705102
705195
705288
705383
705473
705564
705652
705736
705816
705898
705980
706063
706147
706232
706318
706405
706490
706574
706661
706746
706829
706912
706996
707078
707161
707245
707327
707409
707492
707578
707662
707746
707830
707918
708006
708090
708174
708261
708345
708429
708511
708593
708672
708750
708827
708904
708982
709061
709141
709221
709301
709384
709468
709551
709630
709714
709799
709889
709980
710068
710155
710244
710332
710419
710501
710587
710673
710759
710850
710947
711048
711143
711240
711338
711429
711523
711616
711707
711801
711895
711985
712071
712159
712249
712338
712429
712523
712615
712711
712805
712894
712982
713072
713161
713252
713339
713423
713507
713592
713682
713773
713866
713957
714045
714133
714225
714316
714403
714488
714575
714662
714749
714837
714928
715013
715103
715195
715290
715384
715480
715574
715663
715752
715840
715925
716015
716109
716207
716298
716394
716499
716603
716706
716808
716911
717015
717117
717220
717321
717421
717518
717605
717694
717788
717885
717976
718064
718155
718244
718332
718422
718507
718588
718673
718763
718860
718959
719054
719148
719244
719341
719434
719538
719639
719739
719845
719948
720051
720156
720256
720356
720458
720558
720655
720747
720842
720936
721026
721118
721206
721292
721385
721478
721569
721660
721750
721839
721925
722009
722093
722176
722256
722336
722416
722494
722577
722657
722739
722825
722918
723006
723094
723183
723276
723367
723460
723549
723632
723719
723811
723907
723998
724093
724191
724289
724386
724476
724572
724665
724754
724848
724943
725036
725129
725222
725312
725404
725497
725588
725677
725765
725851
725937
726020
726104
726186
726266
726351
726444
726537
726630
726720
726803
726885
726968
727052
727136
727218
727304
727391
727473
727556
727636
727717
727800
727882
727965
728049
728136
728220
728305
728389
728473
728556
728641
728725
728807
728889
728969
729046
729127
729207
729286
729369
729445
729521
729597
729672
729747
729823
729895
729969
730047
730131
730209
730284
730362
730444
730525
730613
730705
730790
730878
730981
731080
731184
731289
731395
731501
731587
731670
731752
731838
731920
732025
732125
732213
732317
732429
732539
732651
732765
732878
732991
733089
733189
733290
733403
733514
733610
733714
733825
733928
734039
734153
734266
734385
734491
734593
734693
734788
734879
734965
735051
735140
735236
735327
735419
735513
735607
735708
735806
735899
735992
736081
736171
736262
736355
736445
736540
736634
736732
736823
736910
736995
737080
737166
737253
737333
737413
737491
737569
737649
737732
737819
737902
737998
738052
738203
738310
738416
738523
738631
738738
738845
738953
739058
739149
739241
739325
739412
739499
739594
739697
739799
739893
739984
740073
740159
740243
740339
740437
740529
740616
740708
740807
740906
741005
741099
741197
741298
741396
741498
741603
741709
741804
741894
741986
742097
742196
742303
742406
742504
742611
742720
742821
742927
743036
743133
743230
743325
743418
743518
743619
743724
743816
743912
744003
744094
744181
744270
744359
744454
744546
744636
744731
744824
744916
745004
745093
745176
745263
745347
745441
745542
745645
745737
745824
745910
746000
746086
746170
746260
746351
746439
746537
746635
746728
746825
746927
747022
747122
747223
747313
747404
747491
747576
747674
747769
747871
747978
748078
748186
748293
748396
748499
748596
748695
748793
748890
748984
749075
749163
749253
749338
749423
749521
749619
749712
749803
749888
749977
750065
750152
750231
750314
750397
750490
750574
750655
750734
750814
750895
750981
751065
751144
751223
751299
751376
751455
751536
751618
751709
751802
751899
751994
752092
752186
752290
752387
752484
752575
752664
752751
752835
752917
753002
753095
753182
753278
753373
753462
753547
753635
753721
753808
753898
753991
754090
754190
754288
754377
754464
754555
754645
754733
754826
754924
755022
755116
755214
755310
755401
755486
755579
755673
755770
755868
755969
756073
756171
756274
756377
756472
756573
756673
756768
756862
756957
757050
757142
757236
757332
757427
757519
757611
757702
757794
757882
757966
758051
758134
758221
758310
758398
758481
758567
758657
758745
758830
758918
759007
759100
759192
759287
759374
759463
759550
759640
759730
759820
759906
759987
760071
760159
760255
760358
760464
760569
760666
760764
760861
760959
761057
761148
761245
761339
761433
761525
761617
761704
761792
761878
761967
762053
762136
762218
762302
762389
762486
762580
762676
762768
762860
762945
763026
763103
763179
763252
763325
763401
763477
763569
763663
763756
763852
763946
764046
764153
764264
764375
764487
764600
764712
764823
764930
765039
765146
765252
765356
765455
765551
765651
765751
765850
765941
766028
766117
766208
766308
766411
766507
766604
766697
766791
766882
766974
767068
767164
767254
767350
767444
767549
767654
767752
767854
767953
768051
768141
768230
768315
768398
768479
768559
768640
768725
768812
768901
768987
769086
769181
769270
769352
769434
769516
769595
769678
769764
769851
769941
770026
770108
770192
770280
770372
770463
770553
770638
770722
770806
770891
770973
771064
771165
771265
771363
771463
771552
771642
771730
771814
771896
771977
772057
772139
772219
772301
772384
772470
772557
772643
772727
772807
772887
772964
773043
773121
773201
773281
773364
773452
773543
773634
773724
773808
773889
773969
774048
774130
774215
774299
774386
774476
774571
774668
774771
774874
774970
775069
775162
775256
775349
775438
775532
775626
775723
775815
775907
775998
776092
776181
776269
776356
776444
776531
776617
776707
776807
776901
776998
777099
777195
777284
777373
777467
777557
777641
777728
777816
777905
777995
778085
778168
778250
778331
778413
778499
778592
778686
778785
778885
778986
779083
779174
779260
779346
779428
779512
779611
779715
779821
779928
780031
780133
780227
780317
780410
780504
780597
780692
780781
780867
780954
781043
781132
781218
781303
781388
781480
781571
781662
781758
781854
781952
782046
782136
782231
782325
782423
782524
782623
782724
782812
782903
782991
783082
783179
783276
783369
783466
783562
783658
783761
783858
783954
784048
784141
784227
784317
784404
784495
784578
784658
784735
784812
784889
784965
785043
785123
785211
785306
785405
785504
785597
785685
785771
785851
785935
786025
786122
786225
786328
786431
786534
786639
786744
786848
786951
787057
787162
787267
787374
787472
787565
787654
787739
787820
787899
787981
788068
788162
788257
788344
788430
788511
788594
788679
788766
788861
788956
789050
789143
789233
789321
789406
789490
789573
789655
789735
789816
789897
789982
790069
790157
790247
790336
790424
790504
790585
790670
790761
790859
790950
791044
791140
791237
791330
791418
791509
791596
791686
791777
791869
791959
792048
792135
792219
792301
792383
792467
792555
792642
792730
792817
792900
792981
793065
793152
793239
793326
793418
793512
793606
793693
793787
793878
793975
794069
794165
794256
794347
794436
794523
794608
794696
794778
794858
794941
795021
795101
795185
795267
795358
795452
795551
795640
795726
795809
795889
795967
796047
796127
796208
796294
796388
796481
796568
796655
796739
796828
796920
797007
797103
797190
797274
797360
797448
797532
797617
797707
797805
797902
797997
798090
798174
798255
798335
798416
798494
798575
798659
798742
798823
798901
798984
799069
799159
799250
799342
799432
799523
799605
799689
799772
799853
799940
800027
800118
800207
800297
800384
800468
800551
800635
800720
800804
800887
800969
801050
801128
801205
801283
801362
801445
801532
801621
801710
801794
801875
801956
802034
802109
802184
802258
802334
802411
802497
802587
802682
802779
802873
802969
803063
803160
803257
803355
803447
803529
803617
803702
803790
803881
803970
804054
804141
804228
804317
804406
804491
804578
804664
804755
804848
804938
805027
805117
805206
805292
805375
805457
805538
805624
805711
805803
805894
805981
806063
806149
806237
806321
806403
806485
806567
806649
806732
806817
806902
806990
807078
807166
807250
807334
807416
807499
807585
807672
807759
807841
807929
808014
808103
808194
808284
808369
808452
808537
808621
808708
808803
808892
808984
809074
809165
809253
809340
809422
809506
809589
809673
809758
809843
809927
810008
810090
810172
810257
810344
810431
810517
810604
810688
810770
810850
810934
811015
811096
811176
811253
811336
811421
811513
811606
811692
811775
811857
811934
812011
812089
812168
812254
812339
812423
812510
812600
812685
812771
812865
812962
813060
813161
813254
813349
813440
813529
813621
813712
813804
813898
813996
814094
814187
814279
814368
814453
814545
814642
814747
814851
814954
815058
815164
815271
815378
815487
815595
815700
815795
815878
815958
816047
816145
816242
816349
816453
816553
816653
816753
816850
816944
817038
817128
817225
817325
817429
817528
817630
817731
817833
817938
818038
818139
818236
818336
818426
818521
818608
818699
818790
818879
818964
819046
819130
819210
819289
819371
819449
819527
819606
819686
819769
819853
819935
820012
820091
820172
820260
820347
820431
820521
820608
820696
820784
820871
820959
821043
821124
821205
821293
821378
821464
821548
821632
821735
821837
821939
822043
822149
822256
822363
822468
822572
822676
822780
822883
822986
823089
823191
823295
823398
823502
823605
823709
823806
823903
823995
824089
824188
824288
824382
824477
824570
824667
824760
824856
824953
825052
825143
825241
825339
825438
825533
825630
825723
825815
825901
825985
826076
826165
826255
826347
826440
826528
826622
826718
826811
826902
826997
827096
827189
827286
827385
827483
827579
827681
827785
827880
827985
828090
828192
828291
828392
828492
828587
828686
828786
828881
828980
829078
829171
829263
829359
829455
829545
829642
829739
829833
829922
830016
830111
830201
830298
830398
830491
830587
830685
830780
830874
830971
831070
831163
831262
831363
831460
831555
831653
831752
831844
831939
832030
832120
832202
832293
832381
832476
832569
832667
832763
832866
832966
833062
833163
833262
833356
833452
833549
833647
833740
833836
833931
834027
834123
834217
834317
834420
834518
834619
834718
834816
834913
835008
835095
835185
835272
835361
835453
835545
835630
835716
835799
835880
835966
836054
836142
836234
836329
836418
836514
836608
836698
836793
836890
836987
837080
837175
837272
837363
837460
837556
837649
837743
837839
837938
838031
838130
838227
838325
838412
838498
838587
838677
838770
838865
838963
839063
839156
839251
839339
839425
839521
839611
839696
839785
839871
839958
840043
840124
840210
840298
840390
840484
840577
840670
840763
840856
840948
841034
841119
841209
841302
841401
841499
841592
841686
841775
841858
841947
842031
842113
842197
842283
842373
842467
842563
842652
842740
842830
842919
843003
843091
843183
843278
843372
843471
843571
843672
843767
843865
843964
844063
844155
844246
844331
844418
844514
844614
844706
844803
844900
845001
845094
845187
845278
845371
845458
845552
845646
845741
845833
845930
846029
846125
846228
846322
846412
846507
846601
846701
846800
846897
846985
847073
847162
847249
847336
847427
847519
847618
847711
847801
847895
847992
848083
848175
848262
848346
848428
848507
848588
848667
848746
848826
848913
848999
849081
849160
849243
849326
849407
849490
849572
849651
849727
849804
849879
849955
850034
850118
850203
850292
850382
850468
850552
850635
850719
850806
850899
850994
851085
851178
851272
851364
851459
851553
851649
851737
851830
851922
852019
852116
852208
852300
852393
852480
852568
852663
852757
852848
852944
853039
853130
853231
853332
853426
853527
853628
853721
853822
853928
854026
854126
854225
854326
854421
854519
854621
854715
854810
854909
855012
855104
855205
855306
855404
855497
855589
855682
855769
855865
855957
856047
856134
856223
856312
856399
856489
856581
856672
856772
856876
856974
857080
857189
857298
857397
857500
857592
857677
857764
857853
857947
858044
858135
858221
858309
858399
858492
858583
858671
858758
858843
858928
859012
859097
859184
859269
859354
859439
859524
859610
859696
859781
859864
859948
860034
860118
860199
860281
860366
860453
860545
860635
860728
860816
860906
860992
861079
861165
861253
861335
861418
861500
861582
861661
861743
861826
861914
862001
862084
862163
862241
862318
862394
862470
862546
862627
862705
862789
862875
862965
863061
863159
863252
863336
863422
863516
863613
863712
863799
863885
863968
864054
864137
864222
864306
864387
864467
864547
864628
864708
864787
864865
864943
865022
865098
865177
865258
865341
865426
865517
865608
865696
865788
865885
865974
866066
866150
866236
866323
866408
866493
866577
866658
866738
866818
866907
866999
867089
867183
867282
867383
867477
867569
867662
867753
867839
867928
868016
868101
868187
868276
868371
868462
868556
868653
868748
868846
868943
869033
869129
869227
869326
869423
869521
869617
869720
869828
869935
870036
870142
870247
870348
870448
870546
870641
870736
870834
870925
871018
871111
871199
871286
871376
871468
871560
871653
871743
871835
871930
872025
872118
872214
872311
872405
872508
872612
872712
872812
872913
873010
873106
873206
873306
873402
873500
873598
873690
873789
873887
873988
874083
874182
874282
874377
874474
874573
874675
874770
874870
874967
875057
875149
875245
875338
875432
875527
875624
875715
875808
875901
875990
876083
876178
876274
876366
876461
876547
876633
876722
876811
876904
877006
877102
877200
877299
877394
877486
877582
877680
877773
877871
877969
878063
878160
878260
878355
878448
878546
878642
878734
878832
878930
879028
879123
879225
879329
879425
879525
879625
879726
879822
879923
880028
880127
880224
880324
880425
880519
880617
880714
880812
880905
881000
881097
881196
881290
881384
881480
881574
881666
881760
881855
881945
882036
882129
882225
882317
882410
882504
882599
882691
882783
882875
882962
883051
883139
883229
883320
883413
883510
883605
883696
883791
883885
883978
884066
884162
884253
884345
884430
884516
884603
884690
884779
884866
884954
885041
885123
885207
885292
885381
885472
885562
885654
885748
885841
885936
886026
886114
886201
886291
886381
886469
886555
886641
886726
886811
886895
886981
887064
887147
887231
887316
887403
887493
887590
887680
887768
887857
887950
888043
888134
888229
888328
888423
888522
888621
888717
888812
888907
889003
889094
889186
889276
889372
889464
889556
889646
889743
889844
889943
890042
890142
890240
890334
890432
890526
890623
890721
890818
890911
890999
891084
891174
891262
891352
891439
891523
891606
891707
891808
891910
892004
892099
892197
892294
892394
892489
892585
892682
892779
892872
892967
893062
893154
893245
893339
893437
893533
893631
893733
893830
893928
894028
894124
894224
894324
894419
894517
894613
894706
894794
894886
894977
895070
895159
895255
895353
895452
895547
895642
895740
895839
895931
896025
896121
896216
896309
896407
896507
896602
896700
896795
896887
896981
897075
897167
897261
897358
897449
897533
897617
897708
897803
897896
897991
898086
898180
898273
898366
898460
898551
898645
898739
898832
898925
899019
899110
899203
899297
899389
899481
899577
899671
899762
899857
899953
900045
900141
900239
900335
900432
900530
900623
900715
900810
900902
900994
901091
901190
901284
901381
901477
901570
901664
901757
901849
901940
902034
902129
902221
902317
902414
902507
902603
902699
902791
902886
902979
903066
903159
903248
903339
903425
903514
903608
903696
903780
903862
903944
904039
904131
904228
904329
904432
904536
904633
904725
904820
904916
905009
905101
905198
905300
905395
905494
905594
905698
905795
905895
905996
906089
906183
906276
906370
906457
906550
906641
906734
906824
906918
907015
907109
907201
907295
907392
907486
907578
907668
907760
907854
907948
908038
908132
908225
908320
908411
908496
908581
908673
908763
908856
908945
909037
909130
909219
909307
909399
909490
909581
909669
909754
909843
909934
910026
910122
910218
910309
910400
910493
910588
910683
910771
910858
910952
911046
911143
911242
911339
911435
911532
911630
911732
911836
911938
912039
912140
912240
912332
912428
912524
912622
912711
912805
912899
912998
913097
913191
913286
913380
913477
913571
913666
913762
913856
913945
914039
914134
914234
914330
914430
914531
914627
914727
914827
914927
915020
915117
915205
915290
915379
915465
915553
915647
915743
915832
915924
916017
916105
916196
916286
916378
916463
916552
916638
916725
916813
916902
916987
917073
917160
917250
917336
917426
917516
917611
917705
917800
917891
917981
918065
918149
918230
918312
918395
918483
918573
918660
918747
918835
918923
919011
919098
919184
919268
919349
919431
919511
919590
919669
919749
919834
919925
920012
920100
920183
920266
920357
920445
920532
920620
920712
920805
920903
920994
921084
921170
921258
921345
921430
921515
921597
921679
921762
921851
921942
922035
922125
922220
922316
922413
922506
922604
922705
922807
922901
922999
923093
923190
923281
923377
923473
923567
923657
923751
923846
923936
924028
924120
924210
924294
924382
924470
924558
924646
924735
924826
924913
924997
925079
925160
925239
925318
925396
925476
925556
925634
925722
925815
925909
926007
926113
926218
926321
926426
926530
926635
926737
926840
926942
927041
927140
927234
927335
927433
927539
927648
927749
927859
927969
928068
928173
928277
928373
928475
928579
928673
928776
928882
928980
929087
929192
929290
929392
929494
929595
929701
929807
929904
930005
930105
930203
930310
930414
930511
930614
930718
930815
930920
931026
931127
931233
931329
931430
931535
931639
931737
931837
931938
932033
932133
932235
932331
932434
932539
932638
932743
932848
932946
933051
933156
933254
933360
933467
933567
933671
933776
933876
933980
934084
934183
934281
934376
934469
934556
934652
934747
934848
934949
935044
935146
935247
935342
935443
935546
935641
935743
935846
935941
936041
936143
936240
936342
936445
936542
936641
936744
936842
936942
937041
937141
937236
937337
937440
937535
937635
937735
937828
937927
938029
938125
938225
938327
938423
938522
938623
938717
938816
938915
939008
939110
939211
939306
939405
939504
939598
939697
939795
939892
939993
940087
940188
940287
940383
940479
940576
940667
940764
940861
940954
941051
941149
941249
941344
941445
941541
941635
941734
941836
941935
942027
942121
942213
942306
942392
942478
942560
942640
942719
942797
942875
942953
943036
943119
943199
943280
943369
943458
943553
943652
943755
943858
943956
944050
944146
944242
944333
944431
944529
944629
944727
944831
944937
945044
945150
945252
945343
945439
945534
945630
945725
945828
945931
946034
946141
946248
946351
946455
946557
946654
946751
946849
946944
947040
947140
947240
947335
947435
947532
947628
947729
947828
947922
948024
948124
948219
948320
948420
948515
948617
948719
948813
948912
949013
949107
949207
949310
949409
949505
949606
949706
949799
949900
950000
950099
950195
950292
950390
950484
950584
950683
950776
950877
950975
951069
951173
951282
951387
951486
951585
951685
951777
951876
951979
952075
952176
952276
952377
952474
952577
952677
952777
952879
952980
953077
953163
953246
953328
953410
953490
953575
953655
953736
953825
953918
954004
954092
954180
954268
954357
954448
954538
954625
954712
954795
954878
954963
955048
955135
955223
955313
955401
955486
955573
955664
955761
955857
955948
956043
956142
956243
956337
956433
956529
956628
956718
956813
956907
957004
957103
957196
957293
957392
957491
957585
957686
957787
957887
957983
958081
958178
958271
958366
958464
958557
958652
958743
958834
958924
959013
959101
959191
959284
959378
959468
959555
959639
959726
959811
959900
959992
960088
960180
960273
960365
960460
960555
960650
960741
960835
960931
961029
961125
961226
961330
961426
961515
961597
961681
961761
961838
961913
961988
962061
962135
962212
962289
962369
962463
962559
962654
962751
962849
962948
963050
963153
963259
963364
963469
963576
963682
963788
963894
964000
964105
964211
964316
964420
964526
964631
964736
964842
964947
965050
965148
965232
965317
965405
965494
965587
965680
965773
965857
965941
966021
966101
966181
966263
966346
966431
966526
966629
966731
966832
966933
967038
967142
967248
967353
967455
967556
967641
967730
967818
967913
968010
968105
968209
968311
968414
968518
968624
968729
968835
968942
969049
969155
969260
969366
969469
969574
969679
969782
969888
969992
970097
970201
970306
970412
970515
970618
970721
970817
970906
970992
971080
971177
971279
971386
971489
971592
971697
971802
971907
972011
972116
972221
972323
972427
972531
972634
972738
972841
972943
973045
973148
973250
973352
973454
973555
973656
973757
973857
973958
974059
974161
974262
974364
974464
974565
974665
974762
974854
974945
975036
975129
975225
975319
975415
975513
975610
975703
975803
975899
975988
976078
976164
976252
976349
976442
976538
976638
976740
976833
976929
977024
977116
977211
977305
977402
977495
977592
977691
977784
977882
977979
978072
978170
978268
978362
978461
978560
978654
978741
978831
978918
979002
979086
979172
979257
979343
979428
979511
979594
979678
979762
979847
979932
980016
980097
980176
980255
980331
980405
980484
980574
980668
980765
980860
980956
981053
981152
981243
981329
981410
981488
981563
981641
981716
981793
981873
981956
982048
982143
982236
982329
982424
982520
982617
982715
982813
982911
983010
983110
983208
983308
983407
983508
983609
983711
983815
983919
984024
984128
984233
984340
984446
984553
984657
984763
984866
984969
985059
985141
985222
985299
985378
985463
985549
985636
985722
985809
985890
985971
986050
986128
986207
986286
986366
986449
986535
986621
986711
986804
986901
986992
987083
987176
987274
987364
987455
987549
987645
987729
987813
987893
987979
988062
988145
988228
988310
988390
988471
988552
988636
988719
988803
988886
988969
989052
989137
989225
989310
989393
989474
989556
989642
989735
989828
989920
990008
990098
990186
990275
990360
990446
990533
990623
990712
990799
990889
990982
991073
991166
991255
991341
991425
991505
991583
991660
991735
991814
991898
991980
992064
992152
992238
992325
992420
992511
992605
992701
992798
992891
992983
993074
993167
993265
993364
993462
993558
993660
993758
993866
993975
994083
994191
994301
994412
994522
994633
994741
994849
994956
995063
995169
995276
995382
995486
995592
995694
995794
995893
995989
996083
996174
996271
996369
996461
996561
996662
996762
996857
996951
997045
997139
997237
997333
997431
997521
997607
997689
997771
997853
997943
998045
998144
998241
998341
998442
998545
998652
998760
998868
998975
999082
999190
999297
999403
999509
999615
999722
999826
999931
1000035
1000131
1000230
1000332
1000434
1000528
1000628
1000724
1000825
1000928
1001028
1001127
1001222
1001312
1001404
1001509
1001607
1001712
1001818
1001923
1002028
1002133
1002237
1002342
1002447
1002551
1002655
1002757
1002861
1002965
1003069
1003173
1003276
1003378
1003481
1003584
1003689
1003793
1003898
1004001
1004104
1004205
1004295
1004399
1004503
1004606
1004708
1004812
1004917
1005022
1005129
1005235
1005342
1005448
1005554
1005660
1005765
1005870
1005975
1006081
1006187
1006290
1006396
1006501
1006606
1006712
1006818
1006924
1007031
1007137
1007241
1007347
1007454
1007558
1007661
1007755
1007842
1007928
1008015
1008101
1008188
1008273
1008355
1008435
1008515
1008592
1008674
1008759
1008849
1008947
1009048
1009145
1009244
1009340
1009430
1009521
1009614
1009708
1009802
1009899
1010001
1010096
1010191
1010290
1010395
1010502
1010608
1010714
1010819
1010922
1011020
1011105
1011190
1011274
1011360
1011449
1011547
1011646
1011753
1011859
1011965
1012075
1012186
1012298
1012411
1012523
1012635
1012745
1012856
1012965
1013074
1013183
1013289
1013392
1013478
1013563
1013651
1013742
1013831
1013915
1013996
1014077
1014158
1014241
1014321
1014399
1014478
1014561
1014644
1014737
1014832
1014932
1015032
1015132
1015233
1015334
1015437
1015539
1015642
1015745
1015848
1015951
1016055
1016159
1016265
1016374
1016486
1016597
1016705
1016813
1016920
1017024
1017129
1017233
1017337
1017440
1017544
1017649
1017751
1017842
1017931
1018024
1018122
1018219
1018321
1018423
1018519
1018607
1018698
1018788
1018882
1018976
1019068
1019161
1019254
1019344
1019435
1019519
1019604
1019690
1019786
1019885
1019989
1020094
1020199
1020303
1020409
1020516
1020622
1020727
1020832
1020937
1021041
1021144
1021247
1021348
1021436
1021527
1021621
1021716
1021808
1021897
1021991
1022086
1022184
1022282
1022380
1022474
1022565
1022654
1022740
1022829
1022916
1022998
1023078
1023159
1023246
1023335
1023429
1023525
1023621
1023717
1023814
1023908
1023999
1024086
1024169
1024250
1024335
1024425
1024525
1024627
1024727
1024830
1024933
1025038
1025145
1025252
1025360
1025466
1025571
1025674
1025765
1025857
1025950
1026049
1026147
1026246
1026346
1026444
1026540
1026631
1026718
1026805
1026896
1026987
1027080
1027175
1027265
1027355
1027453
1027552
1027656
1027761
1027865
1027958
1028048
1028138
1028231
1028327
1028423
1028514
1028608
1028710
1028815
1028914
1029018
1029122
1029225
1029325
1029418
1029509
1029598
1029684
1029769
1029851
1029932
1030014
1030100
1030182
1030263
1030354
1030452
1030543
1030638
1030736
1030837
1030930
1031028
1031130
1031232
1031328
1031434
1031542
1031642
1031747
1031855
1031961
1032062
1032170
1032272
1032369
1032462
1032556
1032653
1032752
1032844
1032942
1033039
1033136
1033234
1033329
1033422
1033512
1033603
1033688
1033773
1033860
1033954
1034047
1034153
1034260
1034359
1034470
1034580
1034688
1034797
1034907
1035018
1035126
1035235
1035345
1035454
1035563
1035671
1035779
1035888
1035997
1036105
1036212
1036320
1036427
1036516
1036605
1036696
1036788
1036876
1036967
1037069
1037176
1037281
1037381
1037485
1037591
1037690
1037789
1037887
1037984
1038086
1038187
1038284
1038379
1038469
1038557
1038644
1038727
1038808
1038892
1038975
1039062
1039158
1039257
1039358
1039452
1039552
1039653
1039760
1039867
1039971
1040077
1040184
1040289
1040396
1040502
1040601
1040697
1040795
1040892
1040986
1041077
1041171
1041272
1041377
1041484
1041585
1041689
1041794
1041894
1041986
1042078
1042171
1042263
1042353
1042448
1042554
1042660
1042763
1042867
1042972
1043075
1043178
1043281
1043384
1043487
1043590
1043694
1043797
1043901
1044005
1044108
1044212
1044317
1044421
1044525
1044628
1044733
1044840
1044945
1045049
1045155
1045262
1045369
1045474
1045581
1045688
1045794
1045899
1046003
1046106
1046208
1046310
1046412
1046514
1046616
1046718
1046822
1046923
1047025
1047125
1047228
1047331
1047428
1047524
1047615
1047713
1047812
1047910
1048004
1048100
1048196
1048290
1048382
1048476
1048569
1048659
1048744
1048831
1048919
1049008
1049099
1049194
1049292
1049386
1049478
1049574
1049672
1049764
1049860
1049956
1050053
1050150
1050240
1050337
1050434
1050531
1050624
1050723
1050824
1050921
1051021
1051122
1051220
1051316
1051415
1051516
1051611
1051712
1051815
1051914
1052018
1052122
1052223
1052322
1052422
1052523
1052621
1052721
1052819
1052914
1053009
1053109
1053208
1053309
1053406
1053499
1053595
1053689
1053784
1053871
1053954
1054041
1054127
1054218
1054312
1054400
1054488
1054577
1054664
1054748
1054836
1054925
1055017
1055108
1055199
1055287
1055378
1055471
1055559
1055651
1055743
1055832
1055929
1056026
1056122
1056224
1056323
1056422
1056517
1056611
1056706
1056795
1056882
1056966
1057051
1057133
1057213
1057294
1057375
1057456
1057542
1057629
1057714
1057793
1057873
1057952
1058033
1058110
1058187
1058266
1058345
1058425
1058502
1058579
1058659
1058739
1058824
1058911
1058998
1059084
1059171
1059257
1059344
1059427
1059508
1059597
1059687
1059774
1059860
1059945
1060025
1060104
1060183
1060264
1060347
1060434
1060525
1060620
1060715
1060813
1060910
1061006
1061094
1061186
1061278
1061367
1061464
1061560
1061656
1061761
1061856
1061955
1062052
1062149
1062246
1062342
1062431
1062522
1062613
1062705
1062796
1062883
1062965
1063053
1063161
1063268
1063374
1063482
1063588
1063694
1063796
1063900
1063989
1064075
1064166
1064259
1064351
1064456
1064558
1064660
1064765
1064872
1064979
1065089
1065198
1065307
1065419
1065529
1065638
1065745
1065853
1065960
1066063
1066168
1066259
1066351
1066445
1066540
1066630
1066715
1066803
1066897
1066991
1067098
1067203
1067309
1067415
1067520
1067623
1067725
1067815
1067895
1067973
1068052
1068139
1068228
1068321
1068421
1068522
1068625
1068726
1068830
1068937
1069049
1069161
1069276
1069391
1069504
1069617
1069729
1069841
1069951
1070062
1070171
1070280
1070387
1070495
1070604
1070709
1070816
1070923
1071029
1071136
1071243
1071351
1071458
1071564
1071672
1071779
1071887
1071992
1072099
1072207
1072312
1072418
1072521
1072617
1072714
1072807
1072903
1073000
1073100
1073194
1073293
1073391
1073495
1073593
1073696
1073800
1073896
1073996
1074097
1074201
1074295
1074395
1074493
1074593
1074694
1074794
1074891
1074993
1075097
1075190
1075292
1075390
1075485
1075585
1075686
1075785
1075884
1075983
1076077
1076175
1076273
1076371
1076463
1076550
1076636
1076728
1076820
1076917
1077008
1077104
1077198
1077294
1077392
1077480
1077567
1077650
1077736
1077845
1077950
1078053
1078158
1078263
1078367
1078469
1078562
1078654
1078743
1078834
1078919
1079011
1079102
1079197
1079291
1079386
1079480
1079569
1079656
1079743
1079835
1079929
1080024
1080121
1080218
1080305
1080390
1080483
1080574
1080678
1080779
1080880
1080983
1081086
1081191
1081293
1081398
1081504
1081609
1081715
1081819
1081924
1082029
1082133
1082237
1082343
1082449
1082555
1082659
1082767
1082875
1082981
1083086
1083191
1083295
1083391
1083482
1083574
1083673
1083769
1083869
1083971
1084077
1084174
1084275
1084376
1084467
1084566
1084663
1084760
1084855
1084951
1085041
1085137
1085231
1085325
1085413
1085509
1085605
1085697
1085792
1085881
1085964
1086045
1086123
1086199
1086273
1086348
1086421
1086494
1086568
1086641
1086718
1086794
1086872
1086951
1087034
1087120
1087207
1087295
1087381
1087466
1087549
1087631
1087712
1087793
1087870
1087949
1088030
1088115
1088198
1088278
1088357
1088436
1088512
1088588
1088664
1088738
1088816
1088894
1088976
1089063
1089152
1089240
1089325
1089420
1089524
1089625
1089727
1089830
1089935
1090040
1090145
1090247
1090333
1090413
1090491
1090568
1090649
1090731
1090820
1090913
1091014
1091105
1091193
1091278
1091370
1091463
1091563
1091664
1091762
1091865
1091968
1092071
1092175
1092282
1092386
1092486
1092584
1092684
1092780
1092870
1092956
1093049
1093149
1093254
1093359
1093457
1093562
1093667
1093765
1093867
1093969
1094070
1094166
1094264
1094353
1094446
1094536
1094626
1094719
1094817
1094908
1095003
1095097
1095196
1095297
1095396
1095488
1095581
1095673
1095766
1095855
1095942
1096027
1096120
1096214
1096314
1096417
1096521
1096617
1096714
1096802
1096892
1096983
1097076
1097167
1097261
1097351
1097437
1097526
1097616
1097708
1097800
1097891
1097979
1098068
1098154
1098240
1098324
1098408
1098493
1098577
1098658
1098736
1098812
1098889
1098965
1099041
1099118
1099196
1099275
1099350
1099425
1099503
1099582
1099662
1099743
1099826
1099911
1099993
1100077
1100161
1100244
1100327
1100409
1100495
1100578
1100658
1100739
1100821
1100907
1100996
1101085
1101180
1101277
1101374
1101469
1101563
1101648
1101734
1101822
1101911
1101999
1102094
1102193
1102290
1102387
1102489
1102587
1102680
1102779
1102875
1102969
1103065
1103160
1103253
1103346
1103432
1103520
1103606
1103692
1103778
1103870
1103962
1104053
1104149
1104243
1104329
1104418
1104509
1104597
1104685
1104780
1104874
1104967
1105069
1105174
1105268
1105365
1105461
1105554
1105655
1105755
1105850
1105953
1106054
1106148
1106249
1106348
1106444
1106538
1106636
1106730
1106826
1106927
1107026
1107123
1107227
1107331
1107429
1107529
1107629
1107723
1107816
1107903
1107985
1108065
1108150
1108237
1108330
1108425
1108517
1108608
1108703
1108797
1108891
1108985
1109077
1109163
1109257
1109347
1109445
1109540
1109637
1109738
1109843
1109943
1110043
1110149
1110255
1110355
1110450
1110549
1110651
1110748
1110848
1110952
1111059
1111160
1111259
1111357
1111454
1111542
1111633
1111724
1111821
1111926
1112030
1112132
1112233
1112328
1112422
1112512
1112599
1112691
1112783
1112880
1112980
1113072
1113159
1113245
1113329
1113413
1113497
1113581
1113666
1113754
1113848
1113944
1114038
1114130
1114215
1114299
1114390
1114489
1114592
1114696
1114794
1114897
1115000
1115102
1115197
1115297
1115398
1115500
1115600
1115696
1115797
1115901
1116004
1116104
1116199
1116298
1116399
1116496
1116600
1116705
1116810
1116908
1117011
1117114
1117212
1117313
1117411
1117505
1117607
1117707
1117803
1117906
1118010
1118112
1118208
1118305
1118403
1118495
1118592
1118692
1118789
1118888
1118988
1119084
1119183
1119280
1119377
1119471
1119568
1119667
1119762
1119862
1119961
1120059
1120157
1120255
1120355
1120448
1120548
1120646
1120739
1120838
1120939
1121034
1121121
1121212
1121312
1121409
1121509
1121610
1121708
1121804
1121902
1121996
1122085
1122175
1122263
1122349
1122436
1122524
1122614
1122702
1122789
1122875
1122960
1123046
1123131
1123217
1123303
1123388
1123467
1123552
1123643
1123736
1123835
1123934
1124035
1124136
1124232
1124324
1124413
1124499
1124581
1124661
1124740
1124822
1124904
1124988
1125080
1125179
1125279
1125380
1125480
1125583
1125685
1125788
1125893
1125998
1126102
1126205
1126307
1126399
1126490
1126585
1126685
1126788
1126887
1126991
1127094
1127197
1127295
1127395
1127495
1127592
1127687
1127776
1127872
1127968
1128066
1128159
1128257
1128355
1128449
1128546
1128641
1128730
1128821
1128912
1129003
1129096
1129194
1129294
1129390
1129490
1129585
1129672
1129757
1129852
1129951
1130052
1130145
1130242
1130340
1130437
1130532
1130630
1130727
1130823
1130913
1131001
1131086
1131174
1131262
1131352
1131438
1131520
1131602
1131689
1131776
1131862
1131946
1132034
1132121
1132208
1132294
1132380
1132467
1132555
1132645
1132736
1132826
1132917
1133007
1133092
1133180
1133268
1133361
1133461
1133557
1133658
1133760
1133864
1133960
1134060
1134162
1134262
1134358
1134458
1134558
1134654
1134756
1134857
1134955
1135058
1135159
1135255
1135341
1135429
1135519
1135615
1135712
1135813
1135910
1136003
1136090
1136175
1136258
1136343
1136430
1136523
1136620
1136719
1136821
1136922
1137023
1137120
1137212
1137295
1137376
1137454
1137530
1137607
1137683
1137757
1137834
1137908
1137985
1138062
1138144
1138227
1138319
1138416
1138516
1138618
1138716
1138805
1138894
1138982
1139072
1139164
1139260
1139361
1139457
1139554
1139652
1139752
1139847
1139937
1140033
1140130
1140232
1140334
1140431
1140526
1140619
1140710
1140799
1140886
1140971
1141057
1141143
1141235
1141329
1141423
1141517
1141615
1141714
1141808
1141897
1141980
1142064
1142146
1142228
1142312
1142400
1142490
1142581
1142667
1142754
1142850
1142944
1143034
1143121
1143207
1143292
1143378
1143464
1143550
1143644
1143738
1143831
1143915
1143998
1144078
1144158
1144237
1144317
1144397
1144487
1144583
1144683
1144782
1144882
1144981
1145082
1145182
1145281
1145370
1145458
1145547
1145645
1145746
1145845
1145945
1146045
1146146
1146246
1146346
1146447
1146545
1146633
1146721
1146810
1146897
1146983
1147069
1147154
1147238
1147322
1147405
1147484
1147562
1147637
1147711
1147784
1147856
1147928
1148002
1148078
1148157
1148243
1148334
1148426
1148522
1148616
1148709
1148801
1148887
1148971
1149050
1149130
1149215
1149304
1149396
1149493
1149591
1149687
1149777
1149862
1149951
1150042
1150141
1150248
1150350
1150452
1150556
1150659
1150764
1150870
1150977
1151081
1151184
1151275
1151370
1151459
1151547
1151645
1151746
1151853
1151961
1152067
1152160
1152252
1152350
1152451
1152554
1152656
1152763
1152860
1152958
1153058
1153162
1153256
1153351
1153448
1153546
1153641
1153733
1153826
1153915
1154006
1154099
1154189
1154273
1154356
1154438
1154523
1154609
1154703
1154804
1154909
1155011
1155115
1155219
1155324
1155429
1155534
1155640
1155743
1155846
1155949
1156036
1156117
1156195
1156271
1156347
1156421
1156501
1156580
1156657
1156738
1156819
1156903
1156988
1157067
1157144
1157224
1157301
1157379
1157459
1157540
1157626
1157713
1157800
1157887
1157975
1158060
1158142
1158221
1158305
1158385
1158465
1158544
1158625
1158706
1158793
1158884
1158981
1159074
1159161
1159246
1159330
1159413
1159493
1159575
1159658
1159739
1159815
1159893
1159970
1160047
1160128
1160208
1160292
1160377
1160466
1160553
1160645
1160736
1160832
1160921
1161007
1161096
1161193
1161290
1161387
1161484
1161578
1161672
1161768
1161869
1161972
1162072
1162170
1162264
1162352
1162444
1162536
1162634
1162734
1162834
1162934
1163030
1163120
1163206
1163288
1163368
1163446
1163524
1163604
1163690
1163786
1163883
1163970
1164063
1164165
1164265
1164366
1164466
1164567
1164661
1164747
1164832
1164926
1165025
1165120
1165218
1165317
1165418
1165514
1165608
1165703
1165800
1165896
1165994
1166090
1166183
1166268
1166355
1166446
1166542
1166644
1166749
1166853
1166953
1167051
1167150
1167244
1167338
1167435
1167534
1167639
1167744
1167846
1167945
1168041
1168135
1168229
1168325
1168426
1168527
1168630
1168727
1168826
1168924
1169021
1169108
1169194
1169278
1169364
1169454
1169543
1169633
1169726
1169816
1169905
1169991
1170078
1170164
1170249
1170332
1170420
1170509
1170601
1170690
1170779
1170868
1170951
1171036
1171120
1171207
1171294
1171385
1171475
1171567
1171658
1171746
1171834
1171923
1172020
1172122
1172223
1172324
1172426
1172527
1172630
1172732
1172833
1172933
1173031
1173126
1173215
1173317
1173419
1173521
1173623
1173728
1173831
1173935
1174040
1174143
1174245
1174347
1174449
1174551
1174652
1174753
1174853
1174954
1175054
1175154
1175256
1175356
1175458
1175559
1175660
1175759
1175858
1175956
1176046
1176133
1176223
1176311
1176401
1176496
1176597
1176697
1176794
1176895
1176995
1177095
1177198
1177301
1177401
1177497
1177589
1177682
1177776
1177870
1177963
1178059
1178155
1178245
1178330
1178413
1178498
1178579
1178666
1178755
1178851
1178942
1179027
1179109
1179191
1179271
1179350
1179430
1179510
1179593
1179677
1179769
1179866
1179963
1180059
1180157
1180255
1180354
1180453
1180553
1180653
1180752
1180852
1180951
1181051
1181150
1181250
1181351
1181452
1181553
1181655
1181757
1181858
1181959
1182059
1182160
1182260
1182359
1182461
1182560
1182661
1182760
1182860
1182954
1183036
1183117
1183197
1183279
1183365
1183455
1183548
1183641
1183737
1183829
1183916
1184001
1184097
1184193
1184296
1184398
1184496
1184595
1184693
1184790
1184884
1184967
1185046
1185126
1185204
1185281
1185356
1185431
1185507
1185579
1185655
1185731
1185809
1185885
1185962
1186042
1186124
1186204
1186284
1186373
1186466
1186555
1186641
1186740
1186837
1186932
1187023
1187114
1187203
1187296
1187394
1187494
1187594
1187691
1187788
1187874
1187962
1188049
1188139
1188238
1188337
1188439
1188542
1188645
1188749
1188847
1188949
1189045
1189142
1189231
1189322
1189414
1189513
1189617
1189719
1189820
1189921
1190020
1190116
1190214
1190315
1190419
1190525
1190629
1190732
1190837
1190943
1191050
1191155
1191260
1191364
1191469
1191572
1191675
1191780
1191881
1191982
1192083
1192182
1192274
1192367
1192459
1192546
1192637
1192728
1192822
1192921
1193016
1193105
1193200
1193293
1193389
1193482
1193569
1193650
1193734
1193819
1193907
1194000
1194089
1194181
1194273
1194362
1194457
1194550
1194654
1194757
1194853
1194958
1195062
1195161
1195259
1195361
1195461
1195562
1195662
1195765
1195865
1195965
1196060
1196150
1196242
1196330
1196424
1196519
1196615
1196701
1196790
1196876
1196964
1197054
1197146
1197236
1197325
1197414
1197502
1197590
1197681
1197770
1197861
1197950
1198040
1198123
1198207
1198293
1198387
1198485
1198588
1198689
1198790
1198892
1198992
1199094
1199187
1199279
1199369
1199456
1199544
1199630
1199711
1199793
1199873
1199954
1200033
1200117
1200205
1200291
1200379
1200464
1200550
1200632
1200715
1200793
1200871
1200950
1201030
1201110
1201195
1201286
1201376
1201465
1201559
1201657
1201754
1201847
1201945
1202046
1202150
1202243
1202336
1202426
1202516
1202602
1202685
1202769
1202858
1202949
1203043
1203134
1203223
1203312
1203397
1203484
1203571
1203660
1203747
1203833
1203922
1204009
1204100
1204193
1204285
1204370
1204459
1204548
1204643
1204734
1204824
1204918
1205013
1205110
1205208
1205307
1205400
1205495
1205591
1205687
1205777
1205872
1205970
1206070
1206169
1206267
1206367
1206465
1206561
1206661
1206763
1206860
1206962
1207061
1207158
1207252
1207342
1207431
1207524
1207619
1207711
1207807
1207904
1208000
1208098
1208195
1208290
1208378
1208462
1208549
1208639
1208737
1208830
1208932
1209034
1209142
1209247
1209353
1209461
1209568
1209675
1209780
1209876
1209966
1210058
1210149
1210246
1210346
1210453
1210558
1210662
1210767
1210872
1210977
1211081
1211182
1211284
1211380
1211475
1211574
1211674
1211776
1211878
1211984
1212081
1212179
1212278
1212378
1212471
1212569
1212667
1212766
1212862
1212965
1213069
1213168
1213272
1213377
1213477
1213582
1213686
1213790
1213886
1213984
1214080
1214175
1214271
1214368
1214465
1214562
1214658
1214753
1214847
1214943
1215034
1215131
1215228
1215325
1215422
1215523
1215626
1215732
1215829
1215924
1216019
1216120
1216219
1216316
1216406
1216500
1216590
1216682
1216776
1216870
1216965
1217062
1217161
1217251
1217343
1217437
1217539
1217642
1217749
1217853
1217958
1218054
1218152
1218248
1218348
1218450
1218556
1218653
1218752
1218852
1218953
1219047
1219137
1219232
1219329
1219428
1219522
1219610
1219694
1219777
1219866
1219958
1220048
1220137
1220225
1220307
1220388
1220471
1220553
1220639
1220725
1220811
1220898
1220981
1221062
1221143
1221229
1221313
1221398
1221486
1221571
1221662
1221750
1221845
1221944
1222041
1222141
1222238
1222330
1222419
1222504
1222587
1222671
1222755
1222841
1222933
1223038
1223142
1223245
1223349
1223454
1223560
1223667
1223775
1223882
1223989
1224096
1224202
1224310
1224417
1224526
1224633
1224738
1224845
1224951
1225057
1225163
1225267
1225373
1225478
1225583
1225688
1225792
1225884
1225977
1226074
1226177
1226283
1226383
1226490
1226595
1226702
1226808
1226915
1227023
1227128
1227234
1227339
1227444
1227548
1227639
1227726
1227809
1227910
1228017
1228118
1228224
1228329
1228436
1228542
1228649
1228755
1228861
1228966
1229070
1229175
1229276
1229379
1229482
1229586
1229690
1229791
1229893
1229994
1230087
1230191
1230296
1230406
1230507
1230616
1230723
1230830
1230938
1231046
1231153
1231260
1231367
1231472
1231577
1231682
1231787
1231892
1231996
1232099
1232204
1232308
1232411
1232514
1232618
1232722
1232826
1232931
1233034
1233139
1233240
1233342
1233444
1233537
1233627
1233726
1233822
1233915
1234010
1234110
1234210
1234308
1234404
1234495
1234588
1234679
1234767
1234852
1234938
1235025
1235117
1235210
1235299
1235388
1235473
1235561
1235660
1235756
1235844
1235932
1236020
1236109
1236199
1236288
1236384
1236475
1236568
1236661
1236751
1236839
1236925
1237014
1237106
1237203
1237301
1237399
1237494
1237586
1237677
1237771
1237873
1237981
1238088
1238195
1238300
1238405
1238511
1238617
1238722
1238825
1238930
1239032
1239135
1239239
1239344
1239445
1239547
1239650
1239749
1239845
1239944
1240043
1240142
1240240
1240330
1240419
1240508
1240594
1240684
1240778
1240874
1240968
1241061
1241154
1241245
1241336
1241427
1241519
1241609
1241701
1241792
1241886
1241981
1242075
1242167
1242259
1242345
1242437
1242530
1242631
1242733
1242837
1242940
1243037
1243139
1243243
1243343
1243434
1243527
1243617
1243709
1243805
1243898
1243992
1244091
1244195
1244292
1244383
1244467
1244550
1244628
1244705
1244782
1244859
1244941
1245027
1245119
1245210
1245301
1245387
1245477
1245560
1245641
1245724
1245804
1245882
1245960
1246043
1246128
1246213
1246304
1246394
1246485
1246579
1246677
1246776
1246872
1246960
1247044
1247137
1247236
1247328
1247431
1247536
1247641
1247746
1247853
1247960
1248068
1248177
1248284
1248390
1248496
1248593
1248695
1248798
1248896
1248987
1249084
1249182
1249289
1249399
1249503
1249605
1249706
1249803
1249896
1249997
1250101
1250206
1250307
1250414
1250523
1250632
1250738
1250845
1250953
1251060
1251168
1251272
1251377
1251480
1251584
1251689
1251791
1251895
1251988
1252088
1252188
1252292
1252397
1252501
1252598
1252691
1252792
1252892
1252996
1253096
1253203
1253311
1253415
1253512
1253611
1253712
1253804
1253901
1253997
1254097
1254200
1254302
1254404
1254507
1254601
1254692
1254782
1254869
1254962
1255065
1255176
1255284
1255389
1255488
1255577
1255670
1255767
1255861
1255951
1256048
1256151
1256250
1256352
1256455
1256561
1256668
1256768
1256868
1256970
1257075
1257183
1257285
1257385
1257484
1257584
1257682
1257782
1257879
1257977
1258073
1258168
1258260
1258355
1258449
1258545
1258643
1258737
1258825
1258917
1259016
1259123
1259235
1259344
1259449
1259554
1259654
1259745
1259831
1259920
1260007
1260102
1260203
1260310
1260412
1260514
1260612
1260712
1260814
1260906
1261006
1261107
1261214
1261323
1261425
1261536
1261646
1261756
1261862
1261971
1262079
1262186
1262293
1262400
1262508
1262615
1262722
1262830
1262938
1263044
1263150
1263257
1263364
1263467
1263565
1263657
1263753
1263851
1263948
1264048
1264140
1264234
1264328
1264423
1264512
1264611
1264710
1264813
1264917
1265022
1265128
1265230
1265330
1265427
1265523
1265619
1265718
1265820
1265917
1266019
1266118
1266219
1266319
1266422
1266526
1266624
1266725
1266825
1266927
1267028
1267123
1267218
1267313
1267406
1267496
1267608
1267717
1267825
1267934
1268043
1268151
1268261
1268371
1268477
1268583
1268691
1268797
1268904
1269010
1269117
1269225
1269333
1269441
1269550
1269658
1269769
1269878
1269986
1270095
1270205
1270315
1270422
1270531
1270640
1270750
1270859
1270966
1271074
1271181
1271288
1271395
1271501
1271607
1271712
1271817
1271923
1272027
1272132
1272237
1272343
1272450
1272556
1272663
1272770
1272876
1272980
1273086
1273194
1273301
1273406
1273512
1273617
1273723
1273825
1273918
1274010
1274117
1274216
1274314
1274418
1274526
1274632
1274737
1274841
1274945
1275050
1275150
1275248
1275345
1275437
1275532
1275625
1275716
1275800
1275881
1275965
1276054
1276141
1276231
1276320
1276409
1276496
1276584
1276667
1276753
1276839
1276926
1277012
1277098
1277181
1277263
1277342
1277421
1277501
1277581
1277660
1277735
1277815
1277900
1277988
1278083
1278175
1278268
1278355
1278440
1278524
1278609
1278692
1278775
1278858
1278938
1279015
1279094
1279172
1279250
1279327
1279406
1279484
1279562
1279642
1279719
1279796
1279872
1279948
1280025
1280103
1280181
1280256
1280334
1280414
1280497
1280578
1280664
1280752
1280841
1280928
1281021
1281118
1281209
1281307
1281405
1281499
1281593
1281689
1281788
1281882
1281981
1282078
1282173
1282270
1282369
1282469
1282561
1282652
1282742
1282831
1282919
1283005
1283087
1283169
1283250
1283330
1283410
1283488
1283565
1283642
1283718
1283793
1283867
1283940
1284013
1284085
1284156
1284227
1284301
1284375
1284451
1284529
1284605
1284681
1284755
1284829
1284902
1284977
1285053
1285132
1285208
1285287
1285367
1285447
1285525
1285603
1285684
1285765
1285844
1285925
1286009
1286095
1286178
1286264
1286354
1286441
1286531
1286621
1286705
1286793
1286884
1286975
1287067
1287158
1287249
1287337
1287425
1287509
1287594
1287681
1287767
1287855
1287943
1288034
1288126
1288219
1288313
1288403
1288493
1288585
1288679
1288773
1288868
1288960
1289048
1289136
1289228
1289323
1289416
1289511
1289602
1289693
1289790
1289885
1289981
1290080
1290183
1290281
1290381
1290479
1290578
1290672
1290761
1290849
1290940
1291030
1291119
1291205
1291289
1291372
1291457
1291539
1291623
1291705
1291787
1291866
1291942
1292015
1292091
1292165
1292236
1292307
1292379
1292455
1292529
1292605
1292684
1292768
1292854
1292939
1293026
1293109
1293189
1293267
1293349
1293435
1293528
1293621
1293713
1293806
1293899
1293993
1294088
1294182
1294278
1294372
1294468
1294562
1294658
1294752
1294848
1294942
1295037
1295132
1295226
1295322
1295418
1295511
1295605
1295699
1295793
1295887
1295981
1296076
1296170
1296264
1296346
1296429
1296516
1296599
1296685
1296772
1296864
1296959
1297052
1297146
1297237
1297325
1297412
1297498
1297583
1297666
1297745
1297825
1297911
1298003
1298098
1298191
1298284
1298378
1298473
1298568
1298662
1298756
1298850
1298941
1299025
1299112
1299199
1299291
1299381
1299466
1299548
1299629
1299706
1299784
1299862
1299938
1300021
1300104
1300188
1300268
1300348
1300430
1300514
1300602
1300689
1300779
1300868
1300950
1301031
1301119
1301215
1301308
1301402
1301495
1301590
1301684
1301780
1301875
1301971
1302068
1302165
1302262
1302360
1302457
1302555
1302653
1302751
1302849
1302947
1303045
1303142
1303240
1303336
1303432
1303526
1303620
1303713
1303807
1303900
1303993
1304088
1304181
1304275
1304369
1304463
1304554
1304644
1304729
1304812
1304894
1304978
1305067
1305152
1305237
1305317
1305397
1305476
1305560
1305646
1305735
1305820
1305902
1305981
1306061
1306144
1306232
1306325
1306416
1306508
1306599
1306692
1306782
1306868
1306954
1307039
1307125
1307212
1307300
1307392
1307487
1307580
1307671
1307764
1307857
1307950
1308044
1308137
1308226
1308315
1308405
1308500
1308594
1308687
1308780
1308874
1308968
1309062
1309156
1309250
1309345
1309440
1309535
1309629
1309723
1309815
1309908
1310001
1310094
1310188
1310282
1310376
1310471
1310567
1310662
1310759
1310855
1310951
1311046
1311142
1311237
1311331
1311425
1311518
1311610
1311702
1311795
1311888
1311981
1312074
1312168
1312262
1312357
1312451
1312545
1312638
1312733
1312826
1312919
1313011
1313104
1313196
1313288
1313378
1313470
1313559
1313643
1313725
1313805
1313880
1313954
1314028
1314101
1314175
1314245
1314316
1314388
1314461
1314533
1314603
1314673
1314743
1314813
1314883
1314951
1315023
1315096
1315171
1315252
1315338
1315421
1315504
1315589
1315668
1315745
1315820
1315898
1315977
1316059
1316145
1316233
1316316
1316399
1316488
1316576
1316665
1316760
1316851
1316942
1317034
1317116
1317195
1317270
1317342
1317416
1317493
1317582
1317669
1317759
1317849
1317938
1318029
1318124
1318219
1318315
1318412
1318509
1318608
1318706
1318804
1318902
1319000
1319096
1319193
1319288
1319383
1319477
1319571
1319664
1319758
1319852
1319945
1320039
1320132
1320226
1320319
1320414
1320507
1320602
1320696
1320789
1320882
1320976
1321068
1321161
1321253
1321344
1321436
1321527
1321618
1321708
1321797
1321885
1321966
1322049
1322138
1322221
1322308
1322399
1322491
1322580
1322668
1322757
1322844
1322932
1323016
1323102
1323189
1323278
1323365
1323453
1323540
1323628
1323716
1323804
1323893
1323984
1324075
1324166
1324256
1324348
1324438
1324529
1324618
1324709
1324798
1324887
1324977
1325067
1325155
1325245
1325332
1325417
1325502
1325591
1325682
1325774
1325865
1325956
1326047
1326139
1326231
1326324
1326413
1326503
1326599
1326692
1326784
1326877
1326969
1327062
1327155
1327248
1327341
1327433
1327524
1327615
1327706
1327797
1327887
1327978
1328067
1328151
1328228
1328304
1328379
1328455
1328534
1328621
1328706
1328789
1328873
1328957
1329043
1329128
1329213
1329299
1329386
1329472
1329558
1329639
1329725
1329806
1329888
1329969
1330047
1330125
1330203
1330279
1330356
1330443
1330528
1330612
1330697
1330783
1330869
1330956
1331044
1331133
1331222
1331310
1331399
1331488
1331577
1331665
1331755
1331845
1331935
1332026
1332117
1332208
1332299
1332390
1332482
1332573
1332663
1332751
1332837
1332925
1333012
1333100
1333183
1333274
1333367
1333460
1333552
1333644
1333739
1333832
1333925
1334019
1334112
1334205
1334298
1334392
1334486
1334581
1334675
1334771
1334866
1334961
1335055
1335150
1335245
1335339
1335435
1335530
1335625
1335721
1335817
1335913
1336010
1336105
1336201
1336295
1336389
1336482
1336576
1336670
1336763
1336856
1336947
1337040
1337131
1337223
1337315
1337408
1337501
1337594
1337687
1337782
1337876
1337972
1338066
1338161
1338256
1338352
1338446
1338541
1338636
1338731
1338826
1338922
1339017
1339112
1339207
1339300
1339395
1339489
1339583
1339677
1339772
1339865
1339959
1340053
1340147
1340240
1340334
1340427
1340520
1340614
1340706
1340800
1340893
1340986
1341080
1341173
1341266
1341360
1341454
1341548
1341643
1341737
1341830
1341923
1342014
1342099
1342178
1342260
1342341
1342424
1342503
1342582
1342665
1342753
1342842
1342934
1343025
1343116
1343208
1343300
1343392
1343484
1343576
1343668
1343760
1343853
1343944
1344036
1344127
1344219
1344309
1344400
1344491
1344583
1344674
1344764
1344849
1344935
1345021
1345109
1345198
1345289
1345373
1345455
1345538
1345621
1345709
1345798
1345887
1345977
1346069
1346160
1346249
1346338
1346432
1346524
1346616
1346709
1346802
1346894
1346986
1347079
1347168
1347254
1347349
1347443
1347535
1347630
1347724
1347819
1347914
1348009
1348104
1348198
1348290
1348382
1348466
1348549
1348632
1348716
1348800
1348891
1348983
1349075
1349167
1349259
1349351
1349444
1349537
1349625
1349711
1349797
1349883
1349970
1350055
1350142
1350227
1350315
1350399
1350486
1350573
1350658
1350738
1350822
1350907
1350995
1351086
1351175
1351263
1351351
1351438
1351523
1351613
1351706
1351797
1351888
1351980
1352069
1352157
1352247
1352336
1352422
1352513
1352605
1352698
1352795
1352890
1352986
1353083
1353182
1353280
1353379
1353477
1353574
1353670
1353765
1353860
1353955
1354050
1354145
1354241
1354336
1354431
1354525
1354620
1354713
1354807
1354899
1354984
1355078
1355172
1355265
1355358
1355452
1355546
1355642
1355738
1355834
1355929
1356025
1356118
1356212
1356304
1356396
1356487
1356579
1356669
1356761
1356851
1356943
1357034
1357126
1357218
1357311
1357403
1357496
1357588
1357681
1357772
1357863
1357955
1358047
1358138
1358231
1358325
1358418
1358513
1358608
1358703
1358798
1358894
1358990
1359085
1359181
1359278
1359373
1359469
1359564
1359659
1359754
1359850
1359945
1360041
1360137
1360231
1360327
1360422
1360517
1360611
1360706
1360799
1360893
1360985
1361078
1361171
1361259
1361342
1361430
1361518
1361607
1361694
1361783
1361871
1361958
1362044
1362130
1362211
1362294
1362374
1362453
1362531
1362616
1362707
1362799
1362890
1362980
1363071
1363163
1363255
1363346
1363438
1363530
1363621
1363713
1363804
1363897
1363987
1364080
1364171
1364264
1364356
1364448
1364539
1364631
1364722
1364812
1364903
1364995
1365086
1365178
1365270
1365363
1365455
1365548
1365641
1365734
1365827
1365920
1366014
1366106
1366199
1366293
1366386
1366479
1366572
1366665
1366759
1366851
1366945
1367038
1367132
1367224
1367318
1367411
1367505
1367598
1367692
1367786
1367879
1367973
1368067
1368159
1368250
1368341
1368430
1368519
1368605
1368687
1368769
1368851
1368936
1369022
1369105
1369183
1369264
1369353
1369441
1369532
1369618
1369705
1369793
1369875
1369957
1370038
1370121
1370204
1370285
1370364
1370441
1370518
1370594
1370675
1370760
1370844
1370930
1371017
1371103
1371189
1371280
1371370
1371460
1371553
1371645
1371737
1371829
1371922
1372016
1372110
1372203
1372297
1372391
1372485
1372578
1372672
1372765
1372860
1372955
1373051
1373145
1373240
1373335
1373430
1373525
1373619
1373714
1373809
1373904
1373999
1374095
1374190
1374288
1374385
1374482
1374577
1374674
1374769
1374865
1374961
1375056
1375150
1375242
1375334
1375426
1375514
1375594
1375673
1375753
1375832
1375912
1375992
1376073
1376151
1376233
1376315
1376399
1376479
1376556
1376635
1376722
1376814
1376904
1376995
1377085
1377177
1377268
1377360
1377451
1377541
1377630
1377718
1377805
1377891
1377972
1378049
1378126
1378209
1378298
1378385
1378471
1378560
1378648
1378738
1378830
1378925
1379019
1379115
1379211
1379307
1379401
1379497
1379589
1379682
1379773
1379864
1379955
1380045
1380135
1380225
1380317
1380409
1380500
1380593
1380686
1380780
1380874
1380967
1381060
1381151
1381233
1381315
1381405
1381499
1381590
1381681
1381772
1381863
1381954
1382044
1382135
1382225
1382313
1382402
1382492
1382581
1382671
1382762
1382853
1382944
1383038
1383131
1383224
1383317
1383410
1383502
1383594
1383684
1383776
1383866
1383957
1384048
1384139
1384230
1384322
1384414
1384505
1384597
1384689
1384781
1384872
1384962
1385052
1385141
1385230
1385319
1385407
1385495
1385585
1385673
1385762
1385852
1385941
1386031
1386121
1386210
1386301
1386390
1386480
1386570
1386659
1386748
1386837
1386926
1387017
1387106
1387196
1387285
1387374
1387464
1387554
1387645
1387735
1387827
1387918
1388009
1388101
1388194
1388286
1388378
1388470
1388562
1388652
1388742
1388830
1388916
1388995
1389078
1389166
1389255
1389343
1389430
1389519
1389608
1389698
1389787
1389878
1389968
1390057
1390147
1390237
1390326
1390415
1390504
1390594
1390683
1390772
1390861
1390951
1391040
1391130
1391221
1391312
1391402
1391495
1391587
1391679
1391772
1391867
1391961
1392055
1392150
1392244
1392340
1392434
1392529
1392623
1392718
1392811
1392905
1392999
1393092
1393186
1393280
1393373
1393466
1393559
1393652
1393744
1393837
1393931
1394024
1394118
1394212
1394308
1394402
1394496
1394590
1394685
1394778
1394872
1394966
1395059
1395153
1395246
1395338
1395431
1395523
1395615
1395706
1395798
1395889
1395980
1396071
1396156
1396240
1396330
1396420
1396509
1396598
1396687
1396777
1396867
1396957
1397047
1397137
1397229
1397322
1397413
1397498
1397585
1397675
1397761
1397847
1397935
1398019
1398099
1398186
1398278
1398372
1398463
1398554
1398645
1398736
1398828
1398919
1399010
1399101
1399193
1399284
1399375
1399466
1399557
1399649
1399741
1399834
1399928
1400023
1400117
1400212
1400307
1400402
1400498
1400594
1400689
1400787
1400883
1400979
1401075
1401171
1401267
1401361
1401456
1401550
1401643
1401736
1401829
1401922
1402015
1402107
1402200
1402293
1402386
1402477
1402566
1402661
1402753
1402845
1402932
1403018
1403103
1403185
1403268
1403356
1403449
1403545
1403641
1403735
1403831
1403927
1404023
1404120
1404217
1404315
1404412
1404511
1404608
1404706
1404805
1404903
1405001
1405101
1405200
1405300
1405400
1405499
1405600
1405700
1405800
1405900
1405998
1406097
1406196
1406295
1406395
1406496
1406597
1406699
1406801
1406904
1407006
1407109
1407212
1407312
1407414
1407514
1407613
1407712
1407810
1407910
1408006
1408104
1408202
1408301
1408399
1408498
1408599
1408697
1408798
1408897
1408997
1409096
1409196
1409295
1409395
1409496
1409596
1409698
1409797
1409898
1409998
1410098
1410197
1410295
1410395
1410494
1410595
1410695
1410796
1410895
1410995
1411094
1411193
1411292
1411391
1411492
1411591
1411692
1411791
1411891
1411990
1412089
1412187
1412284
1412383
1412481
1412578
1412673
1412769
1412864
1412959
1413053
1413148
1413244
1413339
1413435
1413533
1413631
1413729
1413828
1413927
1414024
1414121
1414215
1414306
1414400
1414496
1414589
1414684
1414779
1414874
1414971
1415069
1415166
1415264
1415361
1415460
1415557
1415654
1415751
1415850
1415948
1416046
1416145
1416243
1416343
1416442
1416541
1416640
1416739
1416839
1416937
1417037
1417136
1417234
1417332
1417431
1417529
1417627
1417726
1417825
1417924
1418023
1418122
1418221
1418321
1418419
1418518
1418616
1418714
1418813
1418912
1419009
1419106
1419203
1419297
1419391
1419489
1419586
1419682
1419780
1419877
1419976
1420078
1420178
1420278
1420379
1420478
1420578
1420678
1420779
1420879
1420980
1421077
1421176
1421273
1421370
1421466
1421562
1421659
1421756
1421853
1421951
1422050
1422148
1422247
1422344
1422443
1422540
1422638
1422735
1422832
1422931
1423028
1423126
1423224
1423323
1423420
1423519
1423615
1423713
1423810
1423908
1424007
1424104
1424203
1424300
1424399
1424495
1424592
1424688
1424784
1424881
1424979
1425077
1425174
1425273
1425371
1425470
1425568
1425667
1425766
1425866
1425966
1426067
1426167
1426266
1426366
1426464
1426563
1426657
1426756
1426858
1426955
1427055
1427154
1427253
1427351
1427450
1427548
1427646
1427744
1427842
1427941
1428038
1428136
1428233
1428332
1428429
1428527
1428623
1428721
1428819
1428917
1429016
1429113
1429211
1429309
1429408
1429506
1429605
1429703
1429800
1429898
1429997
1430096
1430193
1430292
1430389
1430486
1430582
1430678
1430774
1430869
1430966
1431063
1431160
1431257
1431354
1431451
1431547
1431643
1431740
1431836
1431932
1432029
1432125
1432222
1432320
1432418
1432516
1432614
1432713
1432812
1432911
1433009
1433107
1433206
1433304
1433403
1433501
1433599
1433697
1433795
1433893
1433991
1434089
1434188
1434287
1434386
1434485
1434584
1434683
1434781
1434880
1434977
1435074
1435170
1435264
1435351
1435438
1435528
1435623
1435719
1435814
1435908
1436005
1436101
1436197
1436293
1436390
1436486
1436584
1436680
1436777
1436876
1436974
1437071
1437167
1437264
1437357
1437454
1437547
1437642
1437737
1437834
1437931
1438028
1438128
1438228
1438328
1438426
1438525
1438624
1438722
1438821
1438920
1439018
1439116
1439216
1439316
1439414
1439512
1439609
1439707
1439804
1439900
1439996
1440094
1440190
1440287
1440385
1440483
1440579
1440676
1440773
1440870
1440967
1441065
1441162
1441259
1441357
1441455
1441554
1441650
1441748
1441846
1441944
1442041
1442139
1442236
1442334
1442432
1442529
1442627
1442724
1442820
1442916
1443013
1443110
1443206
1443304
1443400
1443496
1443590
1443680
1443762
1443845
1443931
1444018
1444109
1444199
1444290
1444387
1444485
1444583
1444681
1444779
1444877
1444976
1445074
1445172
1445268
1445366
1445463
1445559
1445656
1445750
1445848
1445945
1446043
1446140
1446239
1446336
1446433
1446530
1446627
1446724
1446820
1446917
1447013
1447110
1447206
1447302
1447398
1447494
1447590
1447686
1447781
1447876
1447972
1448066
1448159
1448246
1448333
1448415
1448498
1448580
1448663
1448747
1448831
1448918
1449007
1449098
1449190
1449281
1449370
1449459
1449547
1449634
1449720
1449803
1449887
1449970
1450051
1450132
1450213
1450294
1450380
1450466
1450549
1450629
1450711
1450797
1450882
1450966
1451054
1451143
1451232
1451320
1451409
1451497
1451582
1451663
1451750
1451834
1451918
1452007
1452099
1452191
1452282
1452372
1452464
1452555
1452648
1452733
1452819
1452905
1452997
1453091
1453184
1453274
1453364
1453446
1453532
1453614
1453700
1453787
1453876
1453964
1454053
1454144
1454234
1454326
1454413
1454500
1454585
1454671
1454755
1454839
1454923
1455008
1455094
1455181
1455263
1455357
1455454
1455549
1455645
1455742
1455839
1455937
1456034
1456132
1456230
1456326
1456423
1456519
1456616
1456712
1456810
1456908
1457007
1457107
1457205
1457305
1457404
1457502
1457601
1457698
1457796
1457891
1457987
1458082
1458177
1458272
1458368
1458463
1458560
1458656
1458754
1458851
1458948
1459046
1459144
1459242
1459339
1459437
1459533
1459630
1459728
1459826
1459923
1460023
1460121
1460219
1460317
1460416
1460516
1460614
1460712
1460810
1460908
1461005
1461104
1461203
1461301
1461400
1461500
1461600
1461696
1461795
1461893
1461991
1462089
1462187
1462284
1462382
1462478
1462576
1462672
1462762
1462850
1462940
1463036
1463135
1463230
1463328
1463426
1463525
1463622
1463722
1463822
1463923
1464024
1464126
1464227
1464330
1464431
1464533
1464634
1464735
1464837
1464937
1465038
1465139
1465242
1465344
1465446
1465549
1465651
1465754
1465853
1465954
1466056
1466157
1466259
1466358
1466460
1466560
1466659
1466759
1466857
1466956
1467053
1467148
1467244
1467343
1467444
1467537
1467635
1467734
1467835
1467934
1468032
1468132
1468233
1468331
1468431
1468531
1468629
1468727
1468827
1468927
1469026
1469125
1469224
1469323
1469422
1469522
1469620
1469719
1469819
1469917
1470017
1470115
1470215
1470312
1470410
1470508
1470606
1470703
1470801
1470899
1470996
1471095
1471193
1471292
1471390
1471487
1471584
1471681
1471779
1471876
1471975
1472072
1472171
1472269
1472367
1472465
1472564
1472662
1472760
1472859
1472959
1473057
1473155
1473254
1473352
1473450
1473549
1473647
1473745
1473844
1473942
1474040
1474138
1474236
1474333
1474430
1474528
1474626
1474724
1474823
1474921
1475022
1475121
1475220
1475319
1475418
1475516
1475614
1475712
1475810
1475908
1476006
1476105
1476204
1476301
1476399
1476497
1476594
1476691
1476790
1476887
1476986
1477084
1477182
1477278
1477377
1477475
1477572
1477670
1477767
1477864
1477961
1478059
1478155
1478253
1478350
1478447
1478544
1478639
1478733
1478828
1478921
1479013
1479100
1479187
1479276
1479371
1479460
1479555
1479649
1479741
1479833
1479926
1480019
1480112
1480204
1480296
1480389
1480481
1480575
1480667
1480760
1480854
1480948
1481040
1481134
1481227
1481321
1481415
1481510
1481606
1481704
1481803
1481901
1482000
1482098
1482198
1482299
1482399
1482498
1482596
1482696
1482795
1482896
1482996
1483096
1483195
1483295
1483394
1483494
1483594
1483695
1483798
1483899
1484001
1484101
1484204
1484305
1484407
1484508
1484608
1484710
1484809
1484909
1485009
1485110
1485210
1485309
1485410
1485510
1485610
1485710
1485810
1485909
1486009
1486110
1486209
1486309
1486407
1486506
1486604
1486702
1486800
1486897
1486994
1487090
1487185
1487280
1487376
1487471
1487566
1487661
1487758
1487855
1487952
1488048
1488145
1488243
1488341
1488437
1488534
1488631
1488728
1488825
1488921
1489019
1489116
1489212
1489309
1489407
1489505
1489600
1489698
1489795
1489893
1489989
1490085
1490181
1490278
1490374
1490470
1490566
1490663
1490760
1490857
1490955
1491049
1491146
1491240
1491336
1491429
1491523
1491617
1491712
1491808
1491904
1492000
1492097
1492194
1492291
1492390
1492487
1492587
1492685
1492784
1492883
1492982
1493081
1493179
1493278
1493376
1493475
1493572
1493670
1493768
1493867
1493966
1494067
1494167
1494265
1494364
1494463
1494560
1494657
1494754
1494845
1494944
1495043
1495141
1495240
1495338
1495437
1495536
1495634
1495731
1495829
1495926
1496023
1496121
1496219
1496316
1496414
1496512
1496609
1496705
1496801
1496895
1496988
1497074
1497155
1497234
1497320
1497406
1497499
1497595
1497689
1497784
1497878
1497973
1498070
1498168
1498266
1498365
1498463
1498561
1498659
1498756
1498853
1498949
1499047
1499144
1499241
1499339
1499437
1499535
1499632
1499729
1499826
1499924
1500019
1500116
1500212
1500308
1500404
1500500
1500597
1500693
1500790
1500886
1500983
1501079
1501175
1501271
1501368
1501464
1501562
1501660
1501756
1501853
1501951
1502049
1502145
1502243
1502339
1502436
1502531
1502628
1502724
1502820
1502916
1503011
1503107
1503201
1503297
1503393
1503489
1503584
1503680
1503775
1503870
1503966
1504061
1504157
1504252
1504347
1504443
1504539
1504634
1504730
1504825
1504921
1505015
1505110
1505204
1505299
1505394
1505489
1505585
1505680
1505776
1505874
1505971
1506067
1506165
1506261
1506357
1506453
1506549
1506644
1506740
1506836
1506930
1507026
1507122
1507217
1507313
1507409
1507504
1507600
1507696
1507793
1507890
1507988
1508085
1508183
1508280
1508377
1508474
1508570
1508667
1508763
1508859
1508955
1509052
1509147
1509243
1509339
1509435
1509531
1509628
1509725
1509821
1509919
1510016
1510113
1510210
1510307
1510403
1510501
1510599
1510697
1510796
1510894
1510993
1511090
1511188
1511284
1511381
1511478
1511575
1511671
1511767
1511864
1511960
1512056
1512152
1512248
1512343
1512438
1512532
1512628
1512723
1512817
1512911
1513007
1513102
1513197
1513292
1513388
1513484
1513580
1513676
1513771
1513866
1513959
1514052
1514144
1514232
1514319
1514407
1514495
1514585
1514673
1514761
1514850
1514938
1515024
1515113
1515208
1515307
1515402
1515497
1515591
1515687
1515781
1515875
1515969
1516057
1516138
1516224
1516316
1516410
1516503
1516597
1516690
1516785
1516881
1516979
1517077
1517173
1517271
1517370
1517468
1517564
1517662
1517759
1517857
1517954
1518051
1518149
1518247
1518347
1518445
1518545
1518643
1518741
1518838
1518929
1519013
1519096
1519179
1519265
1519355
1519449
1519546
1519642
1519738
1519834
1519932
1520028
1520125
1520223
1520321
1520418
1520515
1520612
1520707
1520802
1520896
1520988
1521081
1521174
1521269
1521364
1521458
1521555
1521652
1521748
1521844
1521940
1522035
1522130
1522225
1522319
1522414
1522508
1522602
1522697
1522795
1522893
1522992
1523090
1523190
1523289
1523387
1523486
1523586
1523684
1523783
1523882
1523980
1524079
1524178
1524277
1524375
1524474
1524574
1524673
1524772
1524871
1524969
1525067
1525166
1525264
1525361
1525460
1525557
1525655
1525753
1525851
1525947
1526045
1526141
1526240
1526336
1526433
1526532
1526630
1526728
1526824
1526922
1527018
1527116
1527213
1527311
1527407
1527504
1527601
1527698
1527795
1527892
1527990
1528087
1528184
1528281
1528379
1528475
1528572
1528670
1528767
1528864
1528962
1529060
1529157
1529256
1529353
1529452
1529549
1529647
1529744
1529841
1529937
1530034
1530131
1530229
1530325
1530422
1530520
1530617
1530714
1530810
1530908
1531006
1531103
1531200
1531298
1531396
1531492
1531589
1531685
1531782
1531878
1531974
1532070
1532167
1532263
1532361
1532460
1532558
1532655
1532753
1532851
1532948
1533045
1533141
1533238
1533334
1533430
1533526
1533621
1533717
1533812
1533908
1534002
1534098
1534193
1534289
1534385
1534480
1534574
1534669
1534764
1534859
1534953
1535048
1535143
1535237
1535332
1535425
1535520
1535613
1535708
1535802
1535897
1535991
1536086
1536181
1536276
1536371
1536466
1536562
1536657
1536752
1536847
1536943
1537038
1537133
1537227
1537320
1537414
1537508
1537601
1537693
1537786
1537879
1537970
1538063
1538153
1538243
1538332
1538425
1538516
1538607
1538697
1538788
1538879
1538970
1539060
1539149
1539240
1539329
1539419
1539510
1539598
1539690
1539781
1539872
1539962
1540053
1540145
1540239
1540335
1540431
1540529
1540625
1540723
1540820
1540918
1541015
1541112
1541210
1541307
1541405
1541502
1541600
1541697
1541795
1541891
1541988
1542086
1542183
1542281
1542378
1542477
1542574
1542673
1542769
1542867
1542964
1543061
1543157
1543254
1543351
1543447
1543545
1543641
1543738
1543833
1543929
1544016
1544104
1544190
1544281
1544373
1544468
1544555
1544645
1544730
1544814
1544906
1544999
1545090
1545179
1545271
1545366
