---
Mammal:            human
Fs:                500
Integration_level: electrocardiogram

Channels:

    - type:   electrography
      name:   I
      unit:   mV
      enable: yes

    - type:   electrography
      name:   II
      unit:   mV
      enable: yes

    - type:   electrography
      name:   III
      unit:   mV
      enable: yes

    - type:   electrography
      name:   AVR
      unit:   mV
      enable: yes

    - type:   electrography
      name:   AVL
      unit:   mV
      enable: yes

    - type:   electrography
      name:   AVF
      unit:   mV
      enable: yes

    - type:   electrography
      name:   V1
      unit:   mV
      enable: yes

    - type:   electrography
      name:   V2
      unit:   mV
      enable: yes

    - type:   electrography
      name:   V3
      unit:   mV
      enable: yes

    - type:   electrography
      name:   V4
      unit:   mV
      enable: yes

    - type:   electrography
      name:   V5
      unit:   mV
      enable: yes

    - type:   electrography
      name:   V6
      unit:   mV
      enable: yes

---
											
-0.13	-0.10	0.03	0.12	-0.08	-0.04	0.12	0.15	0.01	-0.11	-0.16	-0.17
-0.13	-0.10	0.03	0.12	-0.08	-0.04	0.12	0.15	0.01	-0.11	-0.16	-0.17
-0.13	-0.10	0.03	0.12	-0.08	-0.04	0.12	0.15	0.01	-0.11	-0.16	-0.17
-0.13	-0.10	0.03	0.12	-0.08	-0.04	0.12	0.15	0.01	-0.11	-0.16	-0.17
-0.13	-0.10	0.03	0.12	-0.08	-0.04	0.12	0.15	0.00	-0.11	-0.16	-0.17
-0.13	-0.10	0.03	0.12	-0.08	-0.04	0.12	0.15	0.01	-0.11	-0.16	-0.17
-0.14	-0.10	0.05	0.12	-0.10	-0.02	0.12	0.15	0.02	-0.11	-0.16	-0.17
-0.14	-0.10	0.05	0.12	-0.09	-0.03	0.14	0.17	0.03	-0.10	-0.16	-0.17
-0.11	-0.07	0.04	0.09	-0.07	-0.02	0.16	0.19	0.03	-0.11	-0.16	-0.17
-0.11	-0.07	0.03	0.09	-0.07	-0.02	0.16	0.20	0.04	-0.10	-0.16	-0.17
-0.17	-0.14	0.03	0.16	-0.10	-0.06	0.18	0.20	0.06	-0.10	-0.16	-0.17
-0.15	-0.13	0.02	0.14	-0.09	-0.06	0.18	0.20	0.06	-0.10	-0.16	-0.17
-0.12	-0.11	0.01	0.12	-0.07	-0.05	0.18	0.20	0.05	-0.10	-0.16	-0.17
-0.10	-0.10	0.01	0.10	-0.05	-0.04	0.18	0.20	0.06	-0.10	-0.16	-0.17
-0.09	-0.08	0.01	0.08	-0.05	-0.04	0.18	0.20	0.06	-0.09	-0.16	-0.17
-0.09	-0.07	0.02	0.08	-0.06	-0.03	0.18	0.20	0.06	-0.09	-0.16	-0.17
-0.09	-0.06	0.03	0.08	-0.06	-0.02	0.18	0.20	0.06	-0.09	-0.16	-0.17
-0.09	-0.06	0.04	0.08	-0.06	-0.01	0.18	0.21	0.06	-0.09	-0.16	-0.17
-0.10	-0.05	0.05	0.07	-0.07	0.00	0.18	0.21	0.06	-0.09	-0.16	-0.17
-0.10	-0.06	0.05	0.08	-0.07	-0.01	0.18	0.21	0.06	-0.09	-0.16	-0.17
-0.12	-0.10	0.01	0.11	-0.07	-0.04	0.18	0.21	0.06	-0.09	-0.16	-0.17
-0.11	-0.12	-0.01	0.12	-0.05	-0.07	0.18	0.21	0.06	-0.09	-0.16	-0.17
-0.10	-0.13	-0.03	0.11	-0.04	-0.08	0.18	0.21	0.06	-0.09	-0.16	-0.17
-0.12	-0.14	-0.02	0.13	-0.05	-0.08	0.18	0.22	0.06	-0.09	-0.16	-0.17
-0.14	-0.15	-0.01	0.14	-0.06	-0.08	0.18	0.22	0.05	-0.09	-0.16	-0.17
-0.13	-0.14	-0.01	0.14	-0.06	-0.07	0.18	0.22	0.05	-0.09	-0.16	-0.17
-0.13	-0.14	-0.00	0.14	-0.07	-0.07	0.18	0.22	0.05	-0.09	-0.16	-0.17
-0.14	-0.13	0.00	0.13	-0.07	-0.06	0.19	0.23	0.05	-0.09	-0.16	-0.17
-0.14	-0.13	0.01	0.13	-0.07	-0.06	0.18	0.23	0.05	-0.09	-0.16	-0.18
-0.14	-0.12	0.01	0.13	-0.08	-0.05	0.19	0.23	0.05	-0.09	-0.17	-0.18
-0.14	-0.12	0.02	0.13	-0.08	-0.05	0.21	0.26	0.05	-0.09	-0.17	-0.18
-0.16	-0.12	0.04	0.14	-0.10	-0.04	0.22	0.26	0.05	-0.09	-0.17	-0.18
-0.16	-0.11	0.05	0.14	-0.11	-0.03	0.23	0.27	0.05	-0.09	-0.17	-0.18
-0.16	-0.11	0.05	0.13	-0.10	-0.03	0.23	0.27	0.05	-0.09	-0.17	-0.18
-0.16	-0.11	0.05	0.14	-0.10	-0.03	0.23	0.28	0.05	-0.09	-0.17	-0.18
-0.15	-0.10	0.05	0.13	-0.10	-0.03	0.23	0.28	0.05	-0.09	-0.17	-0.18
-0.15	-0.10	0.05	0.13	-0.10	-0.03	0.24	0.28	0.05	-0.11	-0.19	-0.18
-0.15	-0.10	0.05	0.12	-0.10	-0.03	0.24	0.28	0.05	-0.11	-0.20	-0.18
-0.15	-0.10	0.05	0.12	-0.10	-0.02	0.24	0.29	0.05	-0.11	-0.20	-0.18
-0.14	-0.09	0.05	0.12	-0.10	-0.02	0.24	0.29	0.04	-0.11	-0.20	-0.18
-0.14	-0.09	0.05	0.12	-0.10	-0.02	0.24	0.29	0.04	-0.11	-0.20	-0.18
-0.14	-0.09	0.05	0.12	-0.10	-0.02	0.26	0.32	0.07	-0.11	-0.20	-0.19
-0.12	-0.07	0.05	0.10	-0.09	-0.01	0.27	0.34	0.08	-0.11	-0.19	-0.19
-0.14	-0.09	0.05	0.12	-0.10	-0.02	0.27	0.34	0.08	-0.10	-0.20	-0.19
-0.19	-0.14	0.05	0.16	-0.12	-0.04	0.28	0.35	0.08	-0.10	-0.20	-0.19
-0.20	-0.14	0.06	0.17	-0.13	-0.04	0.30	0.37	0.10	-0.10	-0.20	-0.19
-0.19	-0.13	0.06	0.16	-0.12	-0.03	0.31	0.39	0.11	-0.10	-0.20	-0.19
-0.20	-0.11	0.09	0.16	-0.15	-0.01	0.32	0.40	0.12	-0.10	-0.20	-0.19
-0.24	-0.14	0.10	0.19	-0.17	-0.01	0.34	0.42	0.13	-0.10	-0.20	-0.20
-0.25	-0.17	0.09	0.21	-0.17	-0.04	0.35	0.44	0.14	-0.10	-0.20	-0.20
-0.22	-0.14	0.08	0.18	-0.15	-0.03	0.37	0.46	0.14	-0.10	-0.20	-0.20
-0.18	-0.12	0.07	0.15	-0.12	-0.02	0.39	0.48	0.14	-0.10	-0.20	-0.20
-0.19	-0.13	0.06	0.16	-0.12	-0.04	0.39	0.48	0.15	-0.10	-0.20	-0.19
-0.23	-0.17	0.05	0.20	-0.14	-0.06	0.40	0.49	0.16	-0.10	-0.20	-0.20
-0.23	-0.20	0.04	0.22	-0.14	-0.08	0.43	0.53	0.18	-0.10	-0.20	-0.20
-0.20	-0.17	0.03	0.18	-0.12	-0.07	0.44	0.56	0.18	-0.10	-0.20	-0.20
-0.21	-0.14	0.07	0.18	-0.14	-0.04	0.44	0.56	0.18	-0.10	-0.20	-0.20
-0.24	-0.14	0.10	0.19	-0.17	-0.02	0.45	0.58	0.19	-0.10	-0.20	-0.20
-0.26	-0.15	0.12	0.20	-0.19	-0.01	0.46	0.59	0.19	-0.09	-0.22	-0.22
-0.28	-0.14	0.14	0.21	-0.21	-0.00	0.47	0.59	0.19	-0.09	-0.24	-0.24
-0.28	-0.14	0.13	0.21	-0.20	-0.01	0.48	0.62	0.20	-0.09	-0.23	-0.23
-0.27	-0.14	0.13	0.21	-0.20	-0.01	0.49	0.64	0.20	-0.09	-0.23	-0.23
-0.29	-0.16	0.13	0.22	-0.21	-0.01	0.51	0.65	0.20	-0.09	-0.23	-0.23
-0.29	-0.16	0.13	0.23	-0.21	-0.02	0.54	0.68	0.22	-0.09	-0.23	-0.22
-0.27	-0.14	0.13	0.21	-0.20	-0.01	0.56	0.70	0.24	-0.09	-0.23	-0.23
-0.27	-0.14	0.13	0.20	-0.20	-0.00	0.56	0.71	0.23	-0.09	-0.23	-0.23
-0.32	-0.18	0.13	0.25	-0.22	-0.03	0.59	0.74	0.26	-0.09	-0.23	-0.22
-0.33	-0.20	0.13	0.26	-0.23	-0.03	0.60	0.77	0.27	-0.08	-0.23	-0.22
-0.31	-0.18	0.13	0.24	-0.22	-0.02	0.60	0.78	0.26	-0.08	-0.22	-0.22
-0.30	-0.17	0.13	0.24	-0.22	-0.02	0.60	0.78	0.27	-0.08	-0.22	-0.22
-0.30	-0.17	0.13	0.23	-0.21	-0.02	0.60	0.78	0.27	-0.07	-0.22	-0.21
-0.29	-0.16	0.13	0.23	-0.21	-0.02	0.61	0.79	0.27	-0.07	-0.22	-0.21
-0.28	-0.15	0.13	0.22	-0.21	-0.01	0.60	0.78	0.26	-0.07	-0.22	-0.22
-0.28	-0.15	0.13	0.21	-0.20	-0.01	0.60	0.79	0.27	-0.07	-0.21	-0.21
-0.27	-0.14	0.13	0.21	-0.20	-0.01	0.60	0.81	0.29	-0.07	-0.21	-0.21
-0.27	-0.14	0.13	0.20	-0.20	-0.01	0.60	0.81	0.28	-0.07	-0.21	-0.21
-0.27	-0.14	0.13	0.20	-0.20	-0.01	0.60	0.82	0.28	-0.07	-0.21	-0.21
-0.27	-0.14	0.13	0.20	-0.20	-0.01	0.59	0.81	0.28	-0.06	-0.21	-0.21
-0.27	-0.14	0.13	0.21	-0.20	-0.01	0.60	0.80	0.28	-0.06	-0.21	-0.21
-0.27	-0.14	0.13	0.20	-0.20	-0.00	0.59	0.79	0.27	-0.05	-0.20	-0.21
-0.23	-0.10	0.13	0.17	-0.18	0.01	0.58	0.79	0.27	-0.05	-0.20	-0.21
-0.19	-0.07	0.13	0.13	-0.16	0.03	0.58	0.77	0.27	-0.05	-0.21	-0.21
-0.20	-0.05	0.15	0.12	-0.18	0.05	0.57	0.76	0.27	-0.04	-0.20	-0.21
-0.22	-0.04	0.18	0.13	-0.20	0.07	0.56	0.76	0.27	-0.04	-0.19	-0.21
-0.22	-0.03	0.19	0.13	-0.20	0.08	0.56	0.74	0.26	-0.03	-0.19	-0.21
-0.20	-0.03	0.17	0.11	-0.19	0.07	0.54	0.71	0.26	-0.03	-0.18	-0.20
-0.18	-0.02	0.17	0.10	-0.17	0.07	0.52	0.69	0.26	-0.03	-0.18	-0.19
-0.16	-0.01	0.16	0.09	-0.16	0.07	0.49	0.66	0.25	-0.03	-0.18	-0.18
-0.15	-0.00	0.15	0.08	-0.15	0.07	0.46	0.63	0.24	-0.02	-0.17	-0.17
-0.13	0.01	0.14	0.06	-0.13	0.07	0.44	0.60	0.23	-0.02	-0.17	-0.16
-0.09	0.04	0.12	0.03	-0.10	0.08	0.42	0.56	0.23	-0.02	-0.15	-0.13
-0.07	0.04	0.11	0.01	-0.09	0.07	0.41	0.54	0.22	-0.02	-0.14	-0.10
-0.06	0.04	0.10	0.01	-0.08	0.07	0.38	0.49	0.20	-0.01	-0.12	-0.09
-0.04	0.04	0.08	0.00	-0.06	0.06	0.34	0.45	0.17	-0.01	-0.11	-0.09
-0.03	0.04	0.07	-0.01	-0.05	0.06	0.30	0.41	0.16	-0.01	-0.10	-0.08
-0.03	0.04	0.07	-0.01	-0.05	0.06	0.27	0.36	0.14	-0.01	-0.09	-0.07
-0.03	0.04	0.07	-0.01	-0.05	0.06	0.23	0.32	0.13	-0.01	-0.08	-0.06
-0.02	0.04	0.07	-0.01	-0.04	0.06	0.20	0.29	0.12	-0.00	-0.07	-0.05
-0.02	0.04	0.07	-0.01	-0.04	0.06	0.18	0.27	0.10	0.00	-0.06	-0.05
-0.01	0.05	0.06	-0.02	-0.04	0.06	0.15	0.24	0.09	0.00	-0.05	-0.04
0.01	0.07	0.06	-0.04	-0.03	0.07	0.14	0.23	0.09	0.01	-0.04	-0.04
0.01	0.07	0.06	-0.04	-0.02	0.07	0.12	0.20	0.08	0.01	-0.03	-0.04
0.00	0.06	0.06	-0.03	-0.03	0.06	0.11	0.18	0.07	0.01	-0.02	-0.04
0.04	0.10	0.06	-0.07	-0.01	0.08	0.09	0.17	0.06	0.01	-0.02	-0.03
0.09	0.14	0.05	-0.11	0.02	0.10	0.08	0.14	0.05	0.01	-0.01	-0.03
0.04	0.09	0.05	-0.07	-0.01	0.07	0.07	0.12	0.04	0.00	-0.01	-0.03
-0.00	0.05	0.05	-0.02	-0.03	0.05	0.05	0.11	0.04	-0.01	-0.01	-0.02
-0.02	0.03	0.05	-0.00	-0.03	0.04	0.04	0.09	0.03	-0.01	-0.01	-0.04
-0.04	0.01	0.04	0.01	-0.04	0.03	0.03	0.06	0.02	-0.02	-0.02	-0.06
-0.04	0.00	0.04	0.02	-0.04	0.02	0.02	0.04	0.01	-0.03	-0.03	-0.05
-0.02	0.02	0.04	0.00	-0.03	0.03	0.01	0.04	0.01	-0.04	-0.04	-0.05
-0.01	0.03	0.04	-0.01	-0.03	0.04	-0.00	0.03	-0.00	-0.04	-0.05	-0.05
0.01	0.05	0.04	-0.03	-0.01	0.04	-0.01	0.03	-0.01	-0.04	-0.05	-0.05
0.03	0.06	0.04	-0.05	-0.00	0.05	-0.02	0.02	-0.02	-0.03	-0.04	-0.05
0.04	0.07	0.03	-0.05	0.00	0.05	-0.03	0.02	-0.02	-0.04	-0.04	-0.05
0.04	0.07	0.03	-0.05	0.00	0.05	-0.03	0.02	-0.02	-0.04	-0.04	-0.04
0.04	0.07	0.03	-0.05	0.01	0.04	-0.03	0.02	-0.02	-0.04	-0.04	-0.04
0.04	0.07	0.02	-0.06	0.01	0.04	-0.03	0.01	-0.02	-0.04	-0.04	-0.04
0.04	0.06	0.02	-0.05	0.01	0.04	-0.03	0.01	-0.04	-0.04	-0.04	-0.04
0.04	0.06	0.02	-0.05	0.01	0.04	-0.03	0.00	-0.05	-0.04	-0.04	-0.04
0.04	0.06	0.01	-0.05	0.01	0.04	-0.03	0.00	-0.04	-0.04	-0.04	-0.04
0.05	0.06	0.01	-0.06	0.02	0.04	-0.03	0.00	-0.04	-0.04	-0.04	-0.04
0.05	0.06	0.01	-0.06	0.02	0.04	-0.03	-0.00	-0.04	-0.04	-0.04	-0.04
0.05	0.06	0.01	-0.05	0.02	0.03	-0.03	-0.01	-0.04	-0.04	-0.04	-0.04
0.05	0.06	0.00	-0.05	0.02	0.03	-0.03	-0.01	-0.04	-0.04	-0.04	-0.04
0.06	0.06	0.00	-0.06	0.03	0.03	-0.03	-0.01	-0.04	-0.04	-0.04	-0.04
0.06	0.06	0.00	-0.06	0.03	0.03	-0.03	-0.01	-0.04	-0.04	-0.04	-0.04
0.05	0.05	0.00	-0.05	0.02	0.03	-0.03	-0.01	-0.04	-0.04	-0.04	-0.04
0.04	0.05	0.01	-0.05	0.02	0.03	-0.03	-0.01	-0.04	-0.04	-0.04	-0.04
0.04	0.05	0.01	-0.04	0.01	0.03	-0.03	-0.01	-0.04	-0.04	-0.04	-0.04
0.04	0.05	0.01	-0.04	0.01	0.03	-0.03	-0.01	-0.04	-0.04	-0.04	-0.04
0.04	0.05	0.01	-0.04	0.01	0.03	-0.03	-0.01	-0.04	-0.04	-0.04	-0.04
0.03	0.05	0.02	-0.04	0.01	0.03	-0.03	-0.01	-0.04	-0.04	-0.04	-0.04
0.02	0.04	0.02	-0.03	0.00	0.03	-0.03	-0.01	-0.04	-0.04	-0.04	-0.04
0.03	0.04	0.02	-0.04	0.00	0.03	-0.03	-0.01	-0.04	-0.04	-0.04	-0.04
0.03	0.04	0.01	-0.04	0.01	0.03	-0.03	-0.01	-0.04	-0.04	-0.04	-0.04
0.04	0.05	0.01	-0.04	0.01	0.03	-0.03	-0.01	-0.04	-0.04	-0.04	-0.03
0.03	0.04	0.01	-0.03	0.01	0.02	-0.03	-0.00	-0.04	-0.04	-0.04	-0.03
0.02	0.03	0.00	-0.02	0.01	0.01	-0.03	0.00	-0.04	-0.03	-0.04	-0.03
0.02	0.02	-0.00	-0.02	0.01	0.01	-0.03	-0.00	-0.04	-0.04	-0.04	-0.02
0.01	0.01	-0.01	-0.01	0.01	0.00	-0.03	-0.01	-0.04	-0.04	-0.05	-0.03
0.01	-0.00	-0.01	-0.00	0.01	-0.01	-0.03	-0.01	-0.07	-0.06	-0.06	-0.04
0.01	0.02	0.01	-0.01	0.00	0.01	-0.02	-0.02	-0.07	-0.08	-0.08	-0.04
0.01	0.05	0.04	-0.03	-0.01	0.04	-0.01	-0.03	-0.07	-0.09	-0.09	-0.03
0.03	0.08	0.05	-0.05	-0.01	0.06	-0.01	-0.03	-0.07	-0.08	-0.09	-0.04
0.04	0.09	0.04	-0.07	0.00	0.07	0.00	-0.02	-0.07	-0.08	-0.09	-0.04
0.04	0.09	0.04	-0.07	-0.00	0.07	0.00	-0.02	-0.07	-0.08	-0.09	-0.04
0.04	0.08	0.04	-0.06	-0.00	0.06	0.01	-0.01	-0.07	-0.07	-0.09	-0.04
0.06	0.10	0.04	-0.08	0.01	0.07	0.02	-0.01	-0.07	-0.08	-0.09	-0.04
0.07	0.11	0.04	-0.09	0.01	0.07	0.02	-0.00	-0.07	-0.07	-0.09	-0.03
0.05	0.09	0.04	-0.07	0.01	0.06	0.04	0.00	-0.07	-0.07	-0.09	-0.03
0.09	0.12	0.04	-0.11	0.03	0.08	0.04	0.01	-0.07	-0.07	-0.09	-0.03
0.07	0.10	0.03	-0.09	0.02	0.07	0.03	-0.00	-0.07	-0.07	-0.09	-0.04
0.01	0.04	0.03	-0.03	-0.01	0.04	0.04	-0.01	-0.07	-0.07	-0.09	-0.06
-0.02	0.01	0.03	0.00	-0.03	0.02	0.03	-0.02	-0.07	-0.07	-0.09	-0.06
-0.02	0.01	0.03	0.01	-0.02	0.01	0.03	-0.04	-0.07	-0.07	-0.09	-0.06
-0.02	0.00	0.03	0.01	-0.02	0.01	0.03	-0.04	-0.07	-0.07	-0.11	-0.08
-0.03	-0.01	0.03	0.02	-0.03	0.01	0.03	-0.04	-0.06	-0.06	-0.10	-0.08
-0.04	-0.01	0.03	0.02	-0.03	0.01	0.03	-0.03	-0.06	-0.06	-0.09	-0.07
-0.04	-0.02	0.03	0.03	-0.03	0.00	0.03	-0.02	-0.06	-0.06	-0.08	-0.06
-0.05	-0.03	0.03	0.04	-0.04	0.00	0.03	-0.01	-0.06	-0.06	-0.07	-0.06
-0.06	-0.03	0.03	0.04	-0.04	-0.00	0.03	-0.01	-0.05	-0.05	-0.07	-0.05
-0.04	-0.02	0.03	0.03	-0.04	0.00	0.03	0.00	-0.05	-0.05	-0.06	-0.05
-0.03	-0.00	0.02	0.01	-0.03	0.01	0.03	0.01	-0.05	-0.04	-0.05	-0.04
-0.01	0.02	0.03	-0.00	-0.02	0.02	0.03	0.02	-0.04	-0.04	-0.04	-0.04
0.01	0.05	0.04	-0.03	-0.02	0.05	0.04	0.03	-0.04	-0.03	-0.04	-0.04
0.04	0.08	0.05	-0.06	-0.01	0.07	0.03	0.03	-0.04	-0.03	-0.04	-0.04
0.04	0.10	0.07	-0.07	-0.02	0.08	0.03	0.03	-0.04	-0.02	-0.04	-0.04
0.03	0.10	0.07	-0.07	-0.02	0.09	0.03	0.04	-0.03	-0.02	-0.04	-0.03
0.04	0.12	0.08	-0.08	-0.02	0.10	0.03	0.04	-0.02	-0.01	-0.03	-0.03
0.03	0.14	0.11	-0.09	-0.04	0.12	0.03	0.04	-0.01	-0.01	-0.03	-0.03
0.03	0.14	0.10	-0.09	-0.04	0.12	0.04	0.05	-0.00	-0.01	-0.03	-0.03
0.04	0.13	0.10	-0.09	-0.03	0.12	0.05	0.05	0.01	-0.02	-0.03	-0.03
0.04	0.13	0.09	-0.09	-0.03	0.11	0.06	0.06	0.01	-0.01	-0.03	-0.02
0.05	0.13	0.08	-0.09	-0.02	0.11	0.05	0.06	0.01	-0.01	-0.02	-0.03
0.05	0.13	0.08	-0.09	-0.01	0.10	0.04	0.06	0.01	-0.01	-0.02	-0.03
0.05	0.13	0.07	-0.09	-0.01	0.10	0.04	0.06	0.01	-0.01	-0.02	-0.03
0.06	0.12	0.07	-0.09	-0.01	0.10	0.03	0.06	0.01	-0.01	-0.02	-0.03
0.06	0.13	0.06	-0.10	0.00	0.10	0.02	0.06	0.00	-0.01	-0.02	-0.03
0.07	0.13	0.06	-0.10	0.01	0.10	0.01	0.05	0.00	-0.01	-0.02	-0.03
0.07	0.13	0.06	-0.10	0.01	0.09	0.01	0.04	0.00	-0.01	-0.02	-0.03
0.08	0.13	0.05	-0.10	0.01	0.09	-0.01	0.03	-0.00	-0.01	-0.02	-0.03
0.08	0.13	0.05	-0.11	0.02	0.09	-0.02	0.02	-0.01	-0.01	-0.02	-0.03
0.09	0.13	0.04	-0.11	0.02	0.09	-0.03	0.01	-0.01	-0.01	-0.02	-0.03
0.09	0.13	0.04	-0.11	0.03	0.08	-0.04	0.00	-0.01	-0.00	-0.02	-0.03
0.10	0.13	0.04	-0.11	0.03	0.08	-0.06	-0.01	-0.01	-0.01	-0.02	-0.03
0.13	0.15	0.02	-0.14	0.05	0.09	-0.06	-0.02	-0.01	-0.02	-0.02	-0.03
0.13	0.14	0.01	-0.14	0.06	0.08	-0.07	-0.02	-0.02	-0.03	-0.02	-0.03
0.11	0.12	0.01	-0.12	0.05	0.06	-0.08	-0.03	-0.04	-0.03	-0.02	-0.03
0.11	0.11	-0.00	-0.11	0.06	0.05	-0.09	-0.05	-0.04	-0.04	-0.02	-0.03
0.10	0.09	-0.01	-0.10	0.06	0.04	-0.10	-0.05	-0.05	-0.05	-0.04	-0.03
0.10	0.08	-0.02	-0.09	0.06	0.03	-0.11	-0.07	-0.06	-0.06	-0.04	-0.03
0.09	0.07	-0.03	-0.08	0.06	0.02	-0.11	-0.07	-0.06	-0.07	-0.05	-0.03
0.08	0.05	-0.03	-0.07	0.06	0.01	-0.11	-0.06	-0.07	-0.07	-0.06	-0.03
0.08	0.04	-0.04	-0.06	0.06	0.00	-0.11	-0.06	-0.07	-0.07	-0.06	-0.03
0.09	0.03	-0.07	-0.06	0.08	-0.02	-0.11	-0.06	-0.07	-0.07	-0.06	-0.03
0.07	0.01	-0.07	-0.04	0.07	-0.03	-0.11	-0.06	-0.07	-0.07	-0.06	-0.03
0.10	0.03	-0.07	-0.06	0.08	-0.02	-0.11	-0.05	-0.07	-0.07	-0.06	-0.03
0.13	0.06	-0.07	-0.10	0.10	-0.01	-0.11	-0.05	-0.07	-0.07	-0.06	-0.03
0.16	0.09	-0.07	-0.12	0.11	0.01	-0.11	-0.04	-0.07	-0.07	-0.06	-0.02
0.18	0.11	-0.07	-0.14	0.12	0.02	-0.10	-0.04	-0.07	-0.07	-0.06	-0.02
0.17	0.10	-0.07	-0.13	0.12	0.01	-0.09	-0.04	-0.07	-0.08	-0.06	-0.02
0.15	0.09	-0.07	-0.12	0.11	0.01	-0.08	-0.04	-0.06	-0.08	-0.06	-0.03
0.14	0.07	-0.07	-0.11	0.11	0.00	-0.07	-0.03	-0.07	-0.08	-0.06	-0.05
0.13	0.06	-0.07	-0.10	0.10	-0.00	-0.06	-0.04	-0.07	-0.08	-0.06	-0.05
0.12	0.06	-0.07	-0.09	0.10	-0.01	-0.06	-0.04	-0.07	-0.08	-0.06	-0.06
0.10	0.03	-0.07	-0.06	0.08	-0.02	-0.05	-0.04	-0.07	-0.08	-0.06	-0.06
0.07	0.00	-0.07	-0.04	0.07	-0.04	-0.04	-0.04	-0.07	-0.08	-0.06	-0.06
0.05	-0.02	-0.07	-0.01	0.06	-0.04	-0.04	-0.04	-0.07	-0.08	-0.06	-0.06
0.03	-0.04	-0.07	0.01	0.05	-0.06	-0.04	-0.04	-0.07	-0.09	-0.06	-0.06
0.01	-0.06	-0.07	0.02	0.04	-0.06	-0.04	-0.04	-0.07	-0.09	-0.06	-0.06
0.02	-0.05	-0.07	0.02	0.04	-0.06	-0.04	-0.04	-0.07	-0.09	-0.06	-0.06
0.02	-0.05	-0.07	0.01	0.04	-0.06	-0.05	-0.04	-0.07	-0.09	-0.07	-0.06
0.02	-0.05	-0.07	0.01	0.05	-0.06	-0.04	-0.03	-0.07	-0.09	-0.07	-0.06
0.03	-0.04	-0.07	0.01	0.05	-0.06	-0.05	-0.04	-0.07	-0.09	-0.08	-0.07
0.03	-0.04	-0.07	0.01	0.05	-0.06	-0.07	-0.04	-0.10	-0.09	-0.10	-0.09
0.03	-0.05	-0.07	0.01	0.05	-0.06	-0.06	-0.04	-0.09	-0.08	-0.10	-0.09
0.02	-0.04	-0.06	0.01	0.04	-0.05	-0.06	-0.04	-0.09	-0.08	-0.09	-0.08
0.05	-0.04	-0.09	-0.01	0.07	-0.07	-0.05	-0.04	-0.09	-0.07	-0.09	-0.08
0.08	-0.04	-0.12	-0.02	0.10	-0.08	-0.05	-0.04	-0.08	-0.07	-0.08	-0.07
0.04	-0.04	-0.07	-0.00	0.06	-0.06	-0.04	-0.04	-0.08	-0.07	-0.07	-0.07
0.01	-0.03	-0.04	0.01	0.02	-0.04	-0.04	-0.04	-0.07	-0.06	-0.07	-0.07
-0.01	-0.04	-0.03	0.02	0.01	-0.03	-0.04	-0.04	-0.07	-0.06	-0.07	-0.07
-0.00	-0.03	-0.03	0.02	0.01	-0.03	-0.04	-0.03	-0.07	-0.05	-0.07	-0.07
0.00	-0.00	-0.01	0.00	0.00	-0.00	-0.04	-0.04	-0.07	-0.05	-0.07	-0.06
-0.01	0.01	0.03	-0.00	-0.02	0.02	-0.04	-0.06	-0.07	-0.07	-0.07	-0.06
0.00	-0.02	-0.02	0.01	0.01	-0.02	-0.03	-0.05	-0.07	-0.07	-0.07	-0.06
0.01	-0.07	-0.08	0.03	0.05	-0.07	-0.03	-0.04	-0.07	-0.07	-0.07	-0.05
0.03	-0.07	-0.09	0.02	0.06	-0.08	-0.03	-0.03	-0.06	-0.07	-0.07	-0.06
0.04	-0.04	-0.08	0.00	0.06	-0.06	-0.03	-0.02	-0.06	-0.06	-0.07	-0.08
0.06	-0.01	-0.07	-0.02	0.06	-0.04	-0.03	-0.01	-0.06	-0.07	-0.07	-0.08
0.08	0.01	-0.06	-0.05	0.07	-0.02	-0.02	-0.00	-0.06	-0.07	-0.07	-0.08
0.11	0.06	-0.05	-0.08	0.08	0.00	-0.02	0.01	-0.06	-0.06	-0.07	-0.08
0.10	0.06	-0.05	-0.08	0.07	0.01	-0.02	0.01	-0.05	-0.06	-0.07	-0.08
0.06	0.02	-0.04	-0.04	0.05	-0.01	-0.01	-0.00	-0.05	-0.06	-0.08	-0.09
0.02	-0.01	-0.03	-0.01	0.03	-0.02	-0.01	-0.01	-0.05	-0.06	-0.08	-0.09
-0.02	-0.04	-0.02	0.03	-0.00	-0.03	-0.01	-0.01	-0.05	-0.06	-0.08	-0.09
-0.03	-0.07	-0.04	0.05	0.01	-0.06	0.00	-0.01	-0.04	-0.06	-0.08	-0.09
-0.05	-0.11	-0.06	0.08	0.01	-0.08	0.01	-0.01	-0.04	-0.05	-0.08	-0.10
-0.07	-0.12	-0.05	0.10	-0.01	-0.09	0.01	0.01	-0.04	-0.04	-0.08	-0.11
-0.04	-0.09	-0.04	0.06	0.00	-0.07	0.02	0.02	-0.04	-0.04	-0.08	-0.10
-0.01	-0.05	-0.04	0.03	0.02	-0.05	0.03	0.04	-0.01	-0.03	-0.07	-0.08
0.01	-0.03	-0.04	0.01	0.02	-0.03	0.03	0.08	0.01	-0.03	-0.08	-0.07
0.01	-0.02	-0.03	0.00	0.02	-0.03	0.04	0.13	0.05	-0.01	-0.06	-0.06
0.03	0.00	-0.03	-0.02	0.03	-0.01	0.07	0.21	0.13	0.06	-0.00	-0.05
0.07	0.04	-0.03	-0.06	0.05	0.01	0.10	0.28	0.21	0.14	0.04	-0.02
0.07	0.07	0.01	-0.07	0.03	0.04	0.13	0.23	0.27	0.18	0.07	0.01
0.08	0.17	0.09	-0.12	-0.01	0.13	0.10	0.19	0.30	0.23	0.13	0.04
0.13	0.29	0.17	-0.21	-0.02	0.23	0.00	0.03	0.28	0.27	0.18	0.08
0.16	0.40	0.24	-0.28	-0.04	0.32	-0.12	-0.30	0.19	0.28	0.21	0.13
0.16	0.48	0.33	-0.32	-0.08	0.41	-0.23	-0.58	0.10	0.28	0.24	0.20
0.20	0.53	0.33	-0.36	-0.07	0.43	-0.34	-0.81	0.02	0.30	0.30	0.27
0.25	0.59	0.34	-0.42	-0.04	0.46	-0.50	-1.08	-0.10	0.28	0.33	0.32
0.33	0.65	0.32	-0.49	0.01	0.48	-0.71	-1.41	-0.25	0.26	0.37	0.37
0.43	0.70	0.28	-0.57	0.08	0.49	-0.96	-1.78	-0.43	0.24	0.43	0.43
0.53	0.76	0.23	-0.64	0.14	0.50	-1.26	-2.19	-0.66	0.19	0.47	0.49
0.65	0.82	0.17	-0.74	0.24	0.50	-1.55	-2.56	-0.87	0.14	0.52	0.56
0.73	0.86	0.12	-0.79	0.30	0.49	-1.82	-2.85	-1.04	0.13	0.57	0.65
0.85	0.89	0.04	-0.87	0.41	0.47	-2.10	-3.09	-1.17	0.13	0.65	0.72
1.00	0.96	-0.04	-0.98	0.52	0.46	-2.34	-3.25	-1.24	0.14	0.74	0.79
1.11	1.02	-0.09	-1.07	0.60	0.47	-2.48	-3.28	-1.27	0.18	0.82	0.85
1.26	1.03	-0.23	-1.14	0.74	0.40	-2.54	-3.20	-1.23	0.27	0.91	0.88
1.40	1.03	-0.36	-1.21	0.88	0.34	-2.54	-3.05	-1.13	0.37	0.99	0.91
1.46	1.03	-0.43	-1.25	0.94	0.30	-2.47	-2.84	-0.99	0.47	1.08	0.96
1.50	1.03	-0.46	-1.26	0.98	0.28	-2.35	-2.62	-0.84	0.57	1.19	1.02
1.57	1.02	-0.55	-1.30	1.06	0.24	-2.25	-2.44	-0.73	0.66	1.28	1.05
1.56	0.94	-0.62	-1.25	1.09	0.16	-2.11	-2.20	-0.61	0.73	1.33	1.02
1.49	0.82	-0.67	-1.16	1.08	0.07	-1.91	-1.93	-0.52	0.71	1.31	0.99
1.33	0.69	-0.65	-1.01	0.99	0.02	-1.70	-1.68	-0.46	0.65	1.22	0.94
1.16	0.57	-0.59	-0.86	0.87	-0.01	-1.49	-1.46	-0.41	0.59	1.10	0.85
1.03	0.49	-0.54	-0.76	0.78	-0.02	-1.27	-1.26	-0.36	0.49	0.94	0.76
0.84	0.41	-0.43	-0.62	0.63	-0.01	-1.07	-1.06	-0.35	0.38	0.78	0.64
0.64	0.33	-0.31	-0.48	0.47	0.01	-0.88	-0.87	-0.34	0.24	0.57	0.51
0.42	0.24	-0.18	-0.33	0.30	0.03	-0.66	-0.69	-0.32	0.04	0.32	0.35
0.23	0.15	-0.08	-0.19	0.16	0.04	-0.44	-0.51	-0.31	-0.14	0.05	0.17
0.12	0.09	-0.03	-0.10	0.07	0.03	-0.26	-0.33	-0.29	-0.23	-0.12	0.03
-0.01	0.03	0.04	-0.01	-0.03	0.03	-0.14	-0.19	-0.21	-0.20	-0.14	-0.01
-0.06	-0.01	0.05	0.04	-0.06	0.02	-0.07	-0.09	-0.15	-0.15	-0.14	-0.02
-0.08	-0.03	0.04	0.05	-0.06	0.01	-0.02	-0.02	-0.11	-0.13	-0.14	-0.05
-0.11	-0.06	0.04	0.09	-0.07	-0.01	0.02	0.02	-0.07	-0.13	-0.14	-0.08
-0.12	-0.09	0.04	0.10	-0.08	-0.02	0.05	0.07	-0.06	-0.12	-0.14	-0.10
-0.12	-0.08	0.04	0.10	-0.08	-0.02	0.08	0.09	-0.05	-0.12	-0.14	-0.12
-0.11	-0.08	0.04	0.09	-0.07	-0.02	0.09	0.10	-0.03	-0.11	-0.14	-0.14
-0.11	-0.07	0.04	0.09	-0.07	-0.02	0.10	0.12	-0.02	-0.11	-0.14	-0.14
-0.10	-0.07	0.03	0.09	-0.07	-0.02	0.10	0.12	-0.01	-0.10	-0.14	-0.14
-0.10	-0.07	0.03	0.08	-0.06	-0.02	0.10	0.12	0.00	-0.10	-0.14	-0.14
-0.11	-0.08	0.03	0.10	-0.07	-0.03	0.11	0.14	0.00	-0.10	-0.14	-0.14
-0.14	-0.11	0.03	0.12	-0.08	-0.04	0.14	0.16	0.01	-0.10	-0.14	-0.14
-0.15	-0.12	0.03	0.14	-0.09	-0.05	0.15	0.17	0.02	-0.10	-0.14	-0.14
-0.15	-0.12	0.02	0.14	-0.09	-0.05	0.15	0.16	0.02	-0.10	-0.14	-0.14
-0.15	-0.13	0.02	0.14	-0.09	-0.06	0.15	0.17	0.03	-0.10	-0.14	-0.14
-0.17	-0.15	0.02	0.16	-0.09	-0.06	0.15	0.17	0.03	-0.10	-0.14	-0.14
-0.17	-0.15	0.02	0.16	-0.09	-0.07	0.15	0.16	0.04	-0.10	-0.14	-0.16
-0.16	-0.14	0.01	0.15	-0.09	-0.06	0.15	0.16	0.04	-0.10	-0.14	-0.17
-0.15	-0.14	0.01	0.15	-0.08	-0.06	0.15	0.16	0.04	-0.10	-0.15	-0.17
-0.14	-0.14	0.01	0.14	-0.08	-0.06	0.15	0.16	0.04	-0.10	-0.15	-0.17
-0.14	-0.13	0.01	0.13	-0.07	-0.06	0.15	0.17	0.04	-0.10	-0.15	-0.17
-0.13	-0.13	0.01	0.13	-0.07	-0.06	0.16	0.17	0.05	-0.10	-0.15	-0.17
-0.13	-0.12	0.00	0.13	-0.07	-0.06	0.16	0.18	0.04	-0.10	-0.15	-0.17
-0.12	-0.12	-0.00	0.12	-0.06	-0.06	0.16	0.19	0.05	-0.10	-0.15	-0.17
-0.12	-0.12	-0.01	0.12	-0.06	-0.06	0.16	0.19	0.05	-0.10	-0.15	-0.17
-0.11	-0.12	-0.01	0.12	-0.05	-0.06	0.16	0.19	0.05	-0.10	-0.15	-0.17
-0.12	-0.12	0.00	0.12	-0.06	-0.06	0.16	0.19	0.05	-0.10	-0.15	-0.17
-0.12	-0.12	0.01	0.12	-0.07	-0.06	0.16	0.19	0.05	-0.10	-0.15	-0.17
-0.13	-0.12	0.01	0.12	-0.07	-0.05	0.16	0.20	0.05	-0.10	-0.15	-0.17
-0.14	-0.12	0.02	0.12	-0.08	-0.05	0.16	0.20	0.06	-0.10	-0.15	-0.17
-0.14	-0.12	0.03	0.13	-0.08	-0.04	0.16	0.19	0.06	-0.10	-0.15	-0.17
-0.13	-0.11	0.02	0.12	-0.08	-0.04	0.17	0.21	0.06	-0.10	-0.15	-0.17
-0.13	-0.11	0.02	0.12	-0.07	-0.05	0.17	0.22	0.06	-0.10	-0.15	-0.17
-0.12	-0.11	0.01	0.12	-0.07	-0.05	0.17	0.22	0.06	-0.10	-0.15	-0.17
-0.12	-0.11	0.01	0.12	-0.07	-0.05	0.17	0.22	0.06	-0.10	-0.15	-0.17
-0.12	-0.11	0.01	0.11	-0.06	-0.05	0.17	0.22	0.06	-0.10	-0.15	-0.17
-0.12	-0.12	0.00	0.12	-0.06	-0.06	0.17	0.22	0.05	-0.10	-0.15	-0.17
-0.14	-0.14	-0.00	0.14	-0.07	-0.07	0.17	0.22	0.06	-0.10	-0.15	-0.17
-0.17	-0.17	0.01	0.17	-0.09	-0.08	0.17	0.22	0.06	-0.10	-0.15	-0.17
-0.17	-0.15	0.02	0.17	-0.10	-0.07	0.17	0.22	0.06	-0.10	-0.15	-0.17
-0.13	-0.15	-0.02	0.14	-0.06	-0.08	0.17	0.24	0.06	-0.10	-0.15	-0.17
-0.12	-0.14	-0.02	0.13	-0.05	-0.08	0.19	0.25	0.06	-0.10	-0.15	-0.17
-0.12	-0.13	-0.01	0.13	-0.05	-0.07	0.20	0.25	0.06	-0.10	-0.15	-0.17
-0.11	-0.12	-0.01	0.12	-0.05	-0.07	0.19	0.26	0.06	-0.10	-0.15	-0.17
-0.11	-0.12	-0.01	0.11	-0.05	-0.06	0.18	0.26	0.06	-0.10	-0.15	-0.17
-0.11	-0.10	0.00	0.11	-0.06	-0.05	0.19	0.26	0.06	-0.10	-0.15	-0.17
-0.12	-0.12	0.01	0.12	-0.07	-0.05	0.21	0.26	0.07	-0.10	-0.16	-0.17
-0.14	-0.13	0.01	0.13	-0.07	-0.06	0.22	0.27	0.08	-0.10	-0.16	-0.17
-0.14	-0.12	0.02	0.13	-0.08	-0.05	0.21	0.28	0.07	-0.10	-0.16	-0.17
-0.15	-0.12	0.03	0.14	-0.09	-0.05	0.20	0.28	0.07	-0.10	-0.18	-0.17
-0.15	-0.12	0.03	0.14	-0.09	-0.05	0.21	0.29	0.07	-0.10	-0.18	-0.17
-0.16	-0.12	0.04	0.14	-0.10	-0.04	0.24	0.31	0.09	-0.10	-0.18	-0.17
-0.17	-0.12	0.04	0.15	-0.10	-0.04	0.25	0.33	0.10	-0.10	-0.19	-0.17
-0.17	-0.12	0.04	0.15	-0.11	-0.04	0.24	0.33	0.10	-0.10	-0.19	-0.18
-0.17	-0.12	0.04	0.14	-0.10	-0.04	0.24	0.34	0.10	-0.10	-0.19	-0.18
-0.17	-0.13	0.04	0.15	-0.11	-0.05	0.26	0.34	0.10	-0.10	-0.19	-0.18
-0.22	-0.18	0.04	0.20	-0.13	-0.07	0.27	0.35	0.10	-0.10	-0.19	-0.18
-0.24	-0.20	0.04	0.22	-0.14	-0.08	0.27	0.36	0.10	-0.10	-0.19	-0.18
-0.22	-0.18	0.04	0.20	-0.13	-0.07	0.29	0.39	0.11	-0.10	-0.19	-0.18
-0.21	-0.17	0.04	0.20	-0.13	-0.07	0.32	0.41	0.12	-0.10	-0.19	-0.18
-0.21	-0.17	0.04	0.19	-0.12	-0.07	0.32	0.42	0.12	-0.10	-0.19	-0.19
-0.21	-0.16	0.05	0.19	-0.13	-0.06	0.33	0.44	0.13	-0.10	-0.19	-0.19
-0.21	-0.16	0.06	0.18	-0.13	-0.05	0.34	0.46	0.14	-0.10	-0.19	-0.19
-0.21	-0.15	0.06	0.18	-0.14	-0.04	0.35	0.47	0.14	-0.10	-0.20	-0.20
-0.23	-0.14	0.09	0.19	-0.16	-0.03	0.36	0.48	0.15	-0.10	-0.20	-0.20
-0.24	-0.15	0.09	0.19	-0.16	-0.03	0.37	0.49	0.15	-0.10	-0.21	-0.20
-0.26	-0.17	0.09	0.21	-0.18	-0.04	0.37	0.50	0.16	-0.10	-0.21	-0.20
-0.28	-0.18	0.10	0.23	-0.19	-0.04	0.38	0.51	0.17	-0.10	-0.22	-0.21
-0.27	-0.17	0.10	0.22	-0.19	-0.04	0.39	0.53	0.17	-0.11	-0.23	-0.23
-0.28	-0.17	0.10	0.23	-0.19	-0.04	0.41	0.54	0.17	-0.10	-0.23	-0.22
-0.28	-0.17	0.10	0.22	-0.19	-0.03	0.41	0.56	0.18	-0.10	-0.23	-0.22
-0.28	-0.17	0.10	0.22	-0.19	-0.03	0.44	0.59	0.19	-0.10	-0.23	-0.22
-0.28	-0.17	0.10	0.22	-0.19	-0.03	0.47	0.61	0.21	-0.10	-0.22	-0.22
-0.27	-0.17	0.10	0.22	-0.19	-0.03	0.48	0.64	0.22	-0.09	-0.22	-0.22
-0.27	-0.17	0.10	0.22	-0.19	-0.03	0.49	0.66	0.23	-0.09	-0.22	-0.22
-0.27	-0.17	0.11	0.22	-0.19	-0.03	0.50	0.67	0.23	-0.09	-0.22	-0.22
-0.26	-0.16	0.10	0.21	-0.18	-0.03	0.51	0.68	0.23	-0.09	-0.22	-0.22
-0.27	-0.16	0.11	0.22	-0.19	-0.02	0.53	0.68	0.24	-0.08	-0.22	-0.21
-0.29	-0.16	0.13	0.23	-0.21	-0.01	0.54	0.70	0.25	-0.08	-0.21	-0.21
-0.29	-0.16	0.14	0.23	-0.21	-0.01	0.56	0.72	0.26	-0.07	-0.21	-0.21
-0.32	-0.18	0.14	0.25	-0.23	-0.02	0.57	0.74	0.27	-0.07	-0.21	-0.21
-0.32	-0.19	0.14	0.25	-0.23	-0.03	0.58	0.77	0.28	-0.07	-0.21	-0.21
-0.32	-0.18	0.14	0.25	-0.23	-0.03	0.59	0.79	0.29	-0.07	-0.21	-0.21
-0.32	-0.18	0.14	0.25	-0.23	-0.03	0.58	0.78	0.28	-0.06	-0.21	-0.21
-0.32	-0.18	0.14	0.25	-0.23	-0.03	0.58	0.79	0.28	-0.06	-0.21	-0.21
-0.32	-0.18	0.13	0.25	-0.23	-0.03	0.60	0.79	0.29	-0.06	-0.21	-0.21
-0.33	-0.18	0.15	0.26	-0.24	-0.02	0.61	0.80	0.31	-0.06	-0.21	-0.21
-0.35	-0.19	0.16	0.27	-0.25	-0.01	0.62	0.81	0.31	-0.05	-0.20	-0.21
-0.34	-0.18	0.16	0.26	-0.25	-0.01	0.61	0.82	0.30	-0.05	-0.20	-0.21
-0.32	-0.14	0.17	0.23	-0.24	0.01	0.61	0.82	0.30	-0.05	-0.20	-0.21
-0.28	-0.11	0.17	0.20	-0.23	0.03	0.61	0.81	0.30	-0.05	-0.20	-0.21
-0.28	-0.11	0.17	0.19	-0.23	0.03	0.60	0.80	0.30	-0.04	-0.20	-0.20
-0.28	-0.11	0.17	0.20	-0.23	0.03	0.60	0.80	0.30	-0.04	-0.20	-0.20
-0.28	-0.11	0.17	0.20	-0.23	0.03	0.59	0.79	0.30	-0.04	-0.20	-0.19
-0.28	-0.11	0.17	0.20	-0.23	0.03	0.59	0.78	0.29	-0.03	-0.20	-0.18
-0.28	-0.11	0.17	0.19	-0.22	0.03	0.58	0.77	0.29	-0.02	-0.20	-0.18
-0.27	-0.11	0.16	0.19	-0.22	0.03	0.57	0.77	0.29	-0.01	-0.19	-0.17
-0.28	-0.11	0.17	0.19	-0.22	0.03	0.55	0.75	0.29	-0.01	-0.18	-0.17
-0.27	-0.11	0.16	0.19	-0.22	0.03	0.54	0.73	0.29	0.00	-0.17	-0.16
-0.26	-0.10	0.16	0.18	-0.21	0.03	0.54	0.71	0.29	0.01	-0.17	-0.15
-0.26	-0.10	0.16	0.18	-0.21	0.03	0.52	0.69	0.28	0.01	-0.15	-0.14
-0.23	-0.07	0.16	0.15	-0.20	0.04	0.50	0.67	0.26	0.01	-0.14	-0.13
-0.20	-0.04	0.16	0.12	-0.18	0.06	0.46	0.63	0.24	0.01	-0.14	-0.13
-0.17	-0.02	0.16	0.10	-0.17	0.07	0.41	0.57	0.23	0.01	-0.13	-0.12
-0.15	-0.01	0.14	0.08	-0.15	0.07	0.37	0.52	0.21	0.01	-0.12	-0.10
-0.14	-0.01	0.14	0.07	-0.14	0.07	0.34	0.48	0.20	0.01	-0.11	-0.10
-0.13	0.00	0.13	0.06	-0.13	0.07	0.33	0.44	0.19	0.01	-0.10	-0.09
-0.11	0.01	0.12	0.05	-0.12	0.06	0.30	0.40	0.19	0.01	-0.09	-0.08
-0.10	0.01	0.11	0.04	-0.10	0.06	0.28	0.38	0.18	0.01	-0.08	-0.07
-0.08	0.02	0.10	0.03	-0.09	0.06	0.26	0.35	0.17	0.01	-0.07	-0.06
-0.07	0.02	0.09	0.02	-0.08	0.06	0.23	0.32	0.15	0.01	-0.06	-0.05
-0.05	0.04	0.08	0.01	-0.07	0.06	0.20	0.28	0.14	0.01	-0.06	-0.05
-0.04	0.04	0.08	-0.00	-0.06	0.06	0.17	0.25	0.12	0.01	-0.05	-0.04
-0.04	0.03	0.07	0.00	-0.05	0.05	0.15	0.22	0.11	0.01	-0.05	-0.04
-0.03	0.03	0.06	0.00	-0.04	0.04	0.14	0.20	0.09	0.01	-0.04	-0.04
-0.02	0.03	0.05	-0.00	-0.04	0.04	0.12	0.17	0.08	0.01	-0.04	-0.04
-0.02	0.03	0.04	-0.01	-0.03	0.04	0.11	0.14	0.07	0.01	-0.04	-0.04
-0.01	0.02	0.04	-0.01	-0.03	0.03	0.09	0.12	0.07	0.01	-0.04	-0.04
-0.01	0.02	0.03	-0.01	-0.02	0.02	0.08	0.11	0.06	0.01	-0.04	-0.04
-0.01	0.02	0.03	-0.01	-0.01	0.02	0.07	0.10	0.05	0.01	-0.04	-0.04
-0.01	0.02	0.02	-0.01	-0.01	0.02	0.06	0.09	0.04	0.01	-0.03	-0.04
-0.01	0.01	0.02	-0.00	-0.01	0.02	0.06	0.08	0.03	0.01	-0.03	-0.03
-0.00	0.01	0.02	-0.01	-0.01	0.02	0.05	0.07	0.03	0.01	-0.03	-0.04
0.00	0.01	0.01	-0.01	-0.01	0.01	0.05	0.06	0.02	0.01	-0.02	-0.03
0.00	0.01	0.01	-0.01	-0.01	0.01	0.04	0.06	0.02	0.01	-0.02	-0.03
0.00	0.01	0.01	-0.01	-0.00	0.01	0.04	0.05	0.02	0.01	-0.02	-0.03
0.01	0.01	0.01	-0.01	-0.00	0.01	0.04	0.05	0.01	0.01	-0.02	-0.03
0.01	0.01	0.01	-0.01	-0.00	0.01	0.04	0.04	0.01	0.01	-0.02	-0.03
0.01	0.01	0.00	-0.01	0.00	0.01	0.03	0.04	0.01	0.01	-0.01	-0.03
0.01	0.01	0.00	-0.01	0.01	0.01	0.03	0.04	0.01	0.01	-0.01	-0.04
0.01	0.01	0.00	-0.01	0.01	0.01	0.03	0.03	0.00	0.00	-0.01	-0.04
0.02	0.01	-0.00	-0.02	0.01	0.01	0.03	0.03	-0.00	-0.00	-0.01	-0.04
0.02	0.01	-0.01	-0.02	0.01	0.01	0.02	0.03	-0.01	-0.01	-0.01	-0.04
0.02	0.01	-0.01	-0.02	0.01	0.01	0.01	0.02	-0.01	-0.01	-0.01	-0.04
0.03	0.01	-0.01	-0.02	0.02	0.00	0.01	0.03	-0.01	-0.01	-0.01	-0.04
0.02	0.01	-0.01	-0.02	0.02	0.00	0.01	0.03	-0.01	-0.02	-0.01	-0.04
0.03	0.01	-0.02	-0.02	0.02	-0.00	0.00	0.02	-0.01	-0.02	-0.01	-0.04
0.05	0.01	-0.03	-0.03	0.04	-0.01	-0.00	0.02	-0.02	-0.01	-0.02	-0.04
0.05	0.01	-0.04	-0.03	0.05	-0.01	-0.01	0.02	-0.02	-0.02	-0.03	-0.04
0.04	0.01	-0.03	-0.03	0.03	-0.01	-0.01	0.02	-0.02	-0.03	-0.04	-0.04
0.03	0.01	-0.02	-0.02	0.02	-0.00	-0.00	0.02	-0.02	-0.04	-0.04	-0.04
0.02	0.01	-0.01	-0.02	0.02	0.00	0.01	0.01	-0.03	-0.05	-0.04	-0.04
0.02	0.01	-0.00	-0.01	0.01	0.01	0.01	0.02	-0.03	-0.04	-0.04	-0.03
0.01	0.01	0.01	-0.01	0.00	0.01	0.02	0.01	-0.03	-0.04	-0.04	-0.04
0.00	0.01	0.01	-0.01	-0.01	0.01	0.03	0.01	-0.03	-0.04	-0.04	-0.04
-0.01	0.01	0.02	-0.00	-0.02	0.02	0.03	0.01	-0.03	-0.04	-0.04	-0.04
-0.01	0.02	0.03	-0.00	-0.02	0.02	0.04	0.01	-0.03	-0.04	-0.04	-0.04
-0.02	0.01	0.03	0.00	-0.02	0.02	0.04	0.01	-0.03	-0.04	-0.04	-0.04
-0.04	-0.01	0.03	0.02	-0.03	0.01	0.04	0.01	-0.03	-0.04	-0.04	-0.04
-0.05	-0.03	0.03	0.04	-0.04	0.00	0.04	0.01	-0.03	-0.04	-0.04	-0.04
-0.05	-0.02	0.03	0.03	-0.04	0.00	0.04	0.01	-0.03	-0.04	-0.04	-0.03
-0.04	-0.02	0.03	0.03	-0.03	0.00	0.04	0.00	-0.03	-0.04	-0.04	-0.03
-0.04	-0.01	0.03	0.03	-0.03	0.01	0.04	-0.00	-0.03	-0.04	-0.04	-0.03
-0.04	-0.01	0.03	0.02	-0.03	0.01	0.04	0.00	-0.03	-0.04	-0.04	-0.03
-0.04	-0.01	0.03	0.02	-0.03	0.01	0.04	0.00	-0.03	-0.04	-0.04	-0.03
-0.03	-0.01	0.03	0.02	-0.03	0.01	0.04	-0.00	-0.03	-0.04	-0.04	-0.03
-0.03	-0.00	0.03	0.01	-0.03	0.01	0.04	-0.01	-0.03	-0.04	-0.04	-0.03
-0.02	0.00	0.02	0.01	-0.02	0.01	0.04	-0.01	-0.03	-0.04	-0.04	-0.03
-0.03	0.00	0.03	0.01	-0.03	0.01	0.04	-0.01	-0.03	-0.04	-0.04	-0.03
-0.03	0.01	0.03	0.01	-0.03	0.02	0.04	-0.01	-0.03	-0.04	-0.04	-0.03
-0.02	0.01	0.03	0.01	-0.02	0.02	0.04	-0.00	-0.03	-0.04	-0.04	-0.03
-0.03	0.01	0.04	0.01	-0.04	0.03	0.04	0.00	-0.03	-0.04	-0.04	-0.03
-0.04	0.01	0.05	0.02	-0.05	0.03	0.04	-0.00	-0.03	-0.04	-0.04	-0.03
-0.05	-0.01	0.04	0.03	-0.05	0.02	0.04	0.00	-0.03	-0.04	-0.04	-0.03
-0.06	-0.02	0.04	0.04	-0.05	0.01	0.04	0.01	-0.03	-0.04	-0.04	-0.03
-0.04	-0.00	0.04	0.02	-0.04	0.02	0.04	0.01	-0.03	-0.04	-0.04	-0.03
-0.01	0.02	0.03	-0.01	-0.02	0.03	0.04	0.01	-0.03	-0.04	-0.04	-0.03
-0.00	0.03	0.03	-0.01	-0.01	0.03	0.04	0.01	-0.03	-0.04	-0.04	-0.03
-0.01	0.01	0.02	0.00	-0.02	0.02	0.04	0.01	-0.03	-0.04	-0.04	-0.03
-0.02	0.01	0.03	0.01	-0.02	0.01	0.04	0.01	-0.03	-0.04	-0.04	-0.03
-0.03	-0.00	0.03	0.02	-0.03	0.01	0.05	0.01	-0.02	-0.04	-0.04	-0.03
-0.04	-0.01	0.03	0.03	-0.04	0.01	0.05	0.01	-0.02	-0.04	-0.05	-0.03
-0.05	-0.02	0.03	0.03	-0.04	0.01	0.06	0.01	-0.01	-0.04	-0.05	-0.04
-0.06	-0.03	0.03	0.04	-0.04	0.00	0.06	0.01	-0.01	-0.04	-0.05	-0.03
-0.07	-0.04	0.03	0.05	-0.05	-0.00	0.06	0.01	-0.01	-0.04	-0.04	-0.03
-0.05	-0.02	0.03	0.04	-0.04	0.00	0.06	0.01	-0.01	-0.04	-0.04	-0.03
-0.04	-0.01	0.03	0.03	-0.04	0.01	0.06	0.01	-0.00	-0.04	-0.04	-0.03
-0.03	0.00	0.03	0.01	-0.03	0.02	0.07	0.02	0.00	-0.04	-0.04	-0.02
-0.02	0.01	0.03	0.00	-0.02	0.02	0.07	0.03	0.00	-0.04	-0.03	-0.02
-0.01	0.02	0.03	-0.01	-0.02	0.03	0.07	0.03	0.01	-0.04	-0.03	-0.01
0.01	0.05	0.03	-0.03	-0.01	0.04	0.07	0.03	0.01	-0.04	-0.03	-0.02
0.02	0.05	0.03	-0.04	-0.00	0.04	0.08	0.04	0.01	-0.03	-0.03	-0.01
0.03	0.07	0.04	-0.05	-0.00	0.05	0.08	0.05	0.01	-0.01	-0.02	-0.00
0.03	0.08	0.06	-0.05	-0.01	0.07	0.08	0.05	0.02	-0.01	-0.01	0.01
0.00	0.07	0.07	-0.04	-0.04	0.07	0.08	0.06	0.03	0.00	0.00	0.01
0.00	0.07	0.07	-0.04	-0.04	0.07	0.08	0.06	0.04	0.01	0.01	0.02
0.01	0.08	0.07	-0.04	-0.03	0.07	0.08	0.06	0.04	0.02	0.02	0.03
0.01	0.07	0.06	-0.04	-0.03	0.07	0.09	0.07	0.05	0.03	0.03	0.04
0.01	0.07	0.06	-0.04	-0.02	0.06	0.11	0.09	0.07	0.03	0.03	0.04
0.01	0.07	0.06	-0.04	-0.02	0.06	0.10	0.08	0.06	0.03	0.03	0.04
0.02	0.07	0.05	-0.04	-0.01	0.06	0.09	0.08	0.06	0.03	0.03	0.03
0.02	0.07	0.05	-0.04	-0.02	0.06	0.08	0.08	0.06	0.02	0.02	0.03
0.02	0.06	0.05	-0.04	-0.01	0.06	0.08	0.08	0.05	0.02	0.02	0.03
0.03	0.07	0.04	-0.05	-0.01	0.05	0.07	0.07	0.05	0.02	0.02	0.03
0.03	0.07	0.04	-0.05	-0.00	0.05	0.06	0.07	0.05	0.02	0.02	0.03
0.03	0.06	0.03	-0.04	-0.00	0.05	0.06	0.08	0.05	0.02	0.02	0.02
0.04	0.06	0.02	-0.05	0.01	0.04	0.04	0.07	0.04	0.01	0.01	0.02
0.04	0.06	0.02	-0.05	0.01	0.04	0.03	0.05	0.04	0.01	0.02	0.02
0.04	0.06	0.01	-0.05	0.01	0.04	0.01	0.04	0.04	0.01	0.01	0.01
0.04	0.06	0.01	-0.05	0.02	0.03	-0.01	0.04	0.04	0.01	0.01	0.01
0.05	0.06	0.01	-0.05	0.02	0.03	-0.02	0.02	0.04	0.01	0.01	0.01
0.05	0.06	0.00	-0.06	0.03	0.03	-0.02	0.01	0.03	0.00	0.01	0.01
0.06	0.05	-0.00	-0.05	0.03	0.03	-0.03	0.00	0.01	-0.00	0.01	0.01
0.06	0.05	-0.01	-0.05	0.03	0.02	-0.05	-0.01	0.01	-0.01	0.01	0.00
0.06	0.05	-0.01	-0.06	0.04	0.02	-0.07	-0.01	0.00	-0.01	0.01	0.00
0.07	0.05	-0.01	-0.06	0.04	0.02	-0.07	-0.02	-0.01	-0.02	0.01	0.00
0.06	0.05	-0.01	-0.05	0.04	0.02	-0.07	-0.03	-0.02	-0.02	0.00	-0.00
0.06	0.04	-0.02	-0.05	0.04	0.01	-0.07	-0.03	-0.03	-0.03	0.00	-0.01
0.07	0.04	-0.03	-0.06	0.05	0.01	-0.08	-0.04	-0.04	-0.03	-0.00	-0.01
0.08	0.04	-0.04	-0.06	0.06	0.01	-0.08	-0.05	-0.04	-0.04	-0.01	-0.01
0.11	0.04	-0.07	-0.07	0.09	-0.01	-0.08	-0.06	-0.04	-0.04	-0.01	-0.01
0.11	0.04	-0.07	-0.07	0.09	-0.01	-0.08	-0.05	-0.04	-0.04	-0.01	-0.02
0.10	0.04	-0.06	-0.07	0.08	-0.01	-0.08	-0.05	-0.04	-0.04	-0.01	-0.02
0.10	0.04	-0.06	-0.07	0.08	-0.01	-0.07	-0.05	-0.04	-0.04	-0.01	-0.02
0.09	0.03	-0.06	-0.06	0.07	-0.01	-0.07	-0.05	-0.04	-0.04	-0.01	-0.03
0.07	0.03	-0.05	-0.05	0.06	-0.01	-0.06	-0.05	-0.04	-0.04	-0.02	-0.03
0.10	0.02	-0.07	-0.06	0.09	-0.03	-0.06	-0.05	-0.04	-0.04	-0.02	-0.03
0.11	0.02	-0.09	-0.06	0.10	-0.04	-0.05	-0.05	-0.04	-0.04	-0.02	-0.03
0.10	0.01	-0.09	-0.05	0.09	-0.04	-0.05	-0.04	-0.04	-0.04	-0.03	-0.03
0.10	0.01	-0.09	-0.05	0.09	-0.04	-0.04	-0.04	-0.04	-0.04	-0.03	-0.04
0.09	0.00	-0.09	-0.05	0.09	-0.04	-0.04	-0.04	-0.04	-0.04	-0.03	-0.03
0.08	-0.01	-0.09	-0.04	0.09	-0.05	-0.04	-0.04	-0.04	-0.04	-0.03	-0.05
0.08	-0.01	-0.09	-0.03	0.08	-0.05	-0.03	-0.04	-0.04	-0.04	-0.04	-0.06
0.07	-0.02	-0.09	-0.03	0.08	-0.05	-0.03	-0.04	-0.04	-0.04	-0.04	-0.05
0.07	-0.03	-0.09	-0.02	0.08	-0.06	-0.03	-0.04	-0.04	-0.04	-0.04	-0.05
0.06	-0.03	-0.09	-0.01	0.07	-0.06	-0.02	-0.04	-0.04	-0.04	-0.04	-0.05
0.05	-0.04	-0.08	-0.01	0.07	-0.06	-0.02	-0.04	-0.04	-0.04	-0.04	-0.05
0.04	-0.04	-0.09	-0.00	0.07	-0.06	-0.01	-0.04	-0.04	-0.04	-0.04	-0.05
0.04	-0.05	-0.08	0.01	0.06	-0.07	-0.01	-0.04	-0.04	-0.04	-0.04	-0.05
0.01	-0.07	-0.08	0.03	0.05	-0.07	-0.01	-0.04	-0.04	-0.04	-0.04	-0.05
0.01	-0.07	-0.08	0.03	0.05	-0.07	-0.01	-0.04	-0.04	-0.04	-0.04	-0.05
-0.01	-0.09	-0.08	0.04	0.04	-0.08	-0.01	-0.04	-0.04	-0.04	-0.04	-0.05
-0.02	-0.10	-0.08	0.06	0.03	-0.09	-0.01	-0.03	-0.04	-0.04	-0.04	-0.04
-0.01	-0.09	-0.07	0.05	0.03	-0.08	-0.01	-0.04	-0.04	-0.04	-0.04	-0.04
-0.01	-0.09	-0.07	0.05	0.03	-0.08	-0.01	-0.04	-0.04	-0.04	-0.04	-0.04
-0.01	-0.08	-0.07	0.04	0.04	-0.08	-0.01	-0.04	-0.04	-0.04	-0.04	-0.04
-0.01	-0.08	-0.07	0.04	0.03	-0.08	-0.01	-0.04	-0.04	-0.04	-0.04	-0.04
-0.01	-0.08	-0.07	0.05	0.03	-0.07	-0.01	-0.04	-0.04	-0.04	-0.04	-0.04
-0.03	-0.10	-0.07	0.06	0.02	-0.08	-0.01	-0.03	-0.04	-0.04	-0.04	-0.04
-0.06	-0.13	-0.07	0.10	0.01	-0.10	-0.01	-0.03	-0.04	-0.04	-0.04	-0.04
-0.06	-0.13	-0.07	0.10	0.00	-0.10	-0.01	-0.03	-0.04	-0.04	-0.04	-0.05
-0.06	-0.12	-0.06	0.09	0.00	-0.09	-0.00	-0.03	-0.04	-0.04	-0.04	-0.05
-0.05	-0.12	-0.07	0.09	0.01	-0.09	0.00	-0.03	-0.04	-0.04	-0.04	-0.06
-0.05	-0.11	-0.06	0.08	0.01	-0.09	0.00	-0.02	-0.03	-0.04	-0.04	-0.08
-0.05	-0.11	-0.06	0.08	0.01	-0.09	0.00	-0.02	-0.03	-0.04	-0.04	-0.07
-0.05	-0.11	-0.06	0.08	0.01	-0.08	0.00	-0.02	-0.03	-0.04	-0.04	-0.07
-0.04	-0.10	-0.06	0.07	0.01	-0.08	-0.00	-0.02	-0.03	-0.04	-0.04	-0.07
-0.04	-0.10	-0.06	0.07	0.01	-0.08	0.00	-0.02	-0.03	-0.05	-0.04	-0.07
-0.05	-0.10	-0.06	0.08	0.00	-0.08	0.01	-0.01	-0.03	-0.04	-0.04	-0.07
-0.05	-0.10	-0.06	0.08	0.00	-0.08	0.01	-0.01	-0.03	-0.04	-0.04	-0.07
-0.05	-0.11	-0.06	0.08	0.00	-0.08	0.01	-0.01	-0.02	-0.06	-0.04	-0.07
-0.06	-0.11	-0.05	0.08	-0.00	-0.08	0.01	-0.01	-0.02	-0.06	-0.04	-0.07
-0.05	-0.11	-0.06	0.08	0.01	-0.09	0.01	-0.01	-0.02	-0.06	-0.04	-0.07
-0.05	-0.12	-0.07	0.08	0.01	-0.09	0.01	-0.00	-0.01	-0.05	-0.03	-0.07
-0.05	-0.12	-0.07	0.08	0.01	-0.09	0.01	-0.01	-0.01	-0.05	-0.03	-0.07
-0.04	-0.10	-0.07	0.07	0.01	-0.08	0.02	-0.01	-0.02	-0.05	-0.03	-0.06
-0.03	-0.09	-0.06	0.06	0.02	-0.08	0.03	0.01	-0.01	-0.04	-0.03	-0.06
-0.02	-0.08	-0.06	0.05	0.02	-0.07	0.04	0.04	-0.00	-0.04	-0.03	-0.06
-0.01	-0.07	-0.06	0.04	0.03	-0.06	0.05	0.07	0.01	-0.03	-0.02	-0.06
-0.01	-0.06	-0.06	0.03	0.03	-0.06	0.07	0.12	0.06	0.00	-0.02	-0.06
0.01	-0.04	-0.06	0.01	0.04	-0.05	0.07	0.15	0.09	0.02	-0.02	-0.06
0.00	-0.04	-0.04	0.02	0.02	-0.04	0.11	0.23	0.16	0.07	0.01	-0.05
0.01	0.00	-0.01	-0.01	0.01	-0.00	0.12	0.29	0.23	0.13	0.05	-0.03
0.05	0.07	0.02	-0.06	0.02	0.05	0.10	0.29	0.28	0.18	0.09	0.00
0.07	0.15	0.07	-0.11	0.00	0.11	0.08	0.19	0.30	0.24	0.15	0.06
0.11	0.23	0.12	-0.17	-0.01	0.18	-0.02	-0.05	0.24	0.29	0.22	0.12
0.14	0.35	0.21	-0.24	-0.03	0.28	-0.16	-0.38	0.18	0.29	0.25	0.17
0.17	0.45	0.28	-0.31	-0.06	0.37	-0.28	-0.66	0.11	0.28	0.28	0.23
0.20	0.51	0.30	-0.36	-0.05	0.41	-0.39	-0.90	0.01	0.27	0.33	0.28
0.26	0.55	0.29	-0.41	-0.01	0.42	-0.56	-1.17	-0.12	0.26	0.39	0.34
0.34	0.62	0.28	-0.48	0.03	0.45	-0.80	-1.53	-0.29	0.25	0.42	0.39
0.43	0.66	0.23	-0.55	0.10	0.45	-1.08	-1.93	-0.49	0.22	0.47	0.46
0.54	0.71	0.16	-0.62	0.19	0.43	-1.37	-2.34	-0.70	0.17	0.53	0.53
0.66	0.76	0.11	-0.71	0.28	0.43	-1.67	-2.71	-0.91	0.14	0.55	0.58
0.76	0.79	0.03	-0.78	0.36	0.41	-1.94	-3.00	-1.09	0.13	0.59	0.64
0.89	0.81	-0.09	-0.85	0.49	0.36	-2.21	-3.20	-1.19	0.12	0.68	0.71
1.04	0.87	-0.17	-0.95	0.61	0.35	-2.43	-3.32	-1.25	0.15	0.77	0.78
1.19	0.92	-0.27	-1.05	0.73	0.32	-2.55	-3.31	-1.25	0.22	0.86	0.84
1.34	0.94	-0.40	-1.14	0.87	0.27	-2.55	-3.18	-1.17	0.31	0.95	0.89
1.46	0.95	-0.51	-1.21	0.98	0.23	-2.50	-3.02	-1.05	0.41	1.05	0.93
1.52	0.93	-0.58	-1.22	1.05	0.17	-2.45	-2.79	-0.91	0.51	1.15	0.96
1.58	0.91	-0.67	-1.24	1.12	0.12	-2.36	-2.58	-0.78	0.62	1.25	1.01
1.61	0.87	-0.74	-1.24	1.17	0.07	-2.23	-2.37	-0.66	0.72	1.32	1.01
1.58	0.78	-0.80	-1.18	1.19	-0.01	-2.07	-2.12	-0.55	0.75	1.33	0.97
1.49	0.65	-0.84	-1.07	1.17	-0.10	-1.85	-1.84	-0.47	0.69	1.28	0.94
1.34	0.52	-0.82	-0.93	1.08	-0.15	-1.62	-1.59	-0.42	0.65	1.17	0.86
1.18	0.45	-0.72	-0.81	0.95	-0.14	-1.41	-1.38	-0.37	0.58	1.04	0.78
0.99	0.39	-0.61	-0.69	0.80	-0.11	-1.21	-1.18	-0.34	0.48	0.90	0.70
0.78	0.30	-0.48	-0.54	0.63	-0.09	-0.98	-0.97	-0.33	0.37	0.73	0.58
0.56	0.23	-0.33	-0.40	0.44	-0.04	-0.77	-0.79	-0.32	0.18	0.49	0.45
0.32	0.15	-0.16	-0.24	0.24	-0.00	-0.56	-0.63	-0.31	-0.05	0.20	0.26
0.14	0.05	-0.09	-0.10	0.11	-0.02	-0.35	-0.45	-0.31	-0.21	-0.03	0.09
0.03	-0.00	-0.04	-0.01	0.03	-0.02	-0.18	-0.28	-0.28	-0.23	-0.13	-0.00
-0.03	-0.02	0.01	0.02	-0.02	-0.01	-0.10	-0.16	-0.21	-0.20	-0.14	-0.04
-0.04	-0.04	0.00	0.04	-0.02	-0.02	-0.06	-0.10	-0.16	-0.17	-0.14	-0.08
-0.06	-0.06	-0.00	0.06	-0.03	-0.03	-0.02	-0.04	-0.12	-0.15	-0.14	-0.09
-0.07	-0.07	0.00	0.07	-0.04	-0.04	0.02	0.01	-0.07	-0.12	-0.14	-0.09
-0.09	-0.09	0.00	0.09	-0.04	-0.04	0.05	0.06	-0.04	-0.11	-0.13	-0.10
-0.10	-0.10	0.00	0.10	-0.05	-0.05	0.08	0.09	-0.04	-0.10	-0.14	-0.11
-0.10	-0.10	0.00	0.10	-0.05	-0.05	0.10	0.10	-0.03	-0.10	-0.14	-0.11
-0.10	-0.10	-0.00	0.10	-0.05	-0.05	0.10	0.11	-0.02	-0.10	-0.13	-0.11
-0.11	-0.10	0.01	0.10	-0.06	-0.04	0.11	0.12	-0.01	-0.10	-0.13	-0.12
-0.12	-0.10	0.02	0.11	-0.07	-0.04	0.12	0.13	-0.01	-0.10	-0.13	-0.12
-0.13	-0.10	0.03	0.11	-0.08	-0.04	0.14	0.15	0.00	-0.10	-0.12	-0.12
-0.14	-0.10	0.04	0.12	-0.09	-0.03	0.14	0.15	0.01	-0.09	-0.12	-0.12
-0.15	-0.10	0.05	0.12	-0.10	-0.03	0.14	0.15	0.01	-0.09	-0.12	-0.12
-0.15	-0.10	0.05	0.12	-0.10	-0.03	0.14	0.15	0.01	-0.09	-0.12	-0.12
-0.14	-0.10	0.04	0.12	-0.09	-0.03	0.14	0.15	0.02	-0.08	-0.12	-0.12
-0.14	-0.10	0.04	0.12	-0.09	-0.03	0.14	0.15	0.03	-0.08	-0.12	-0.12
-0.14	-0.10	0.04	0.12	-0.09	-0.03	0.14	0.15	0.03	-0.08	-0.12	-0.12
-0.13	-0.10	0.04	0.12	-0.09	-0.03	0.14	0.15	0.03	-0.08	-0.12	-0.12
-0.14	-0.11	0.04	0.13	-0.09	-0.04	0.14	0.15	0.05	-0.07	-0.12	-0.12
-0.15	-0.12	0.03	0.13	-0.09	-0.04	0.14	0.16	0.06	-0.07	-0.12	-0.12
-0.14	-0.11	0.03	0.12	-0.08	-0.04	0.15	0.16	0.05	-0.07	-0.12	-0.13
-0.13	-0.10	0.03	0.12	-0.08	-0.04	0.15	0.17	0.05	-0.07	-0.12	-0.13
-0.13	-0.10	0.03	0.12	-0.08	-0.04	0.16	0.18	0.05	-0.07	-0.12	-0.13
-0.12	-0.10	0.02	0.11	-0.07	-0.04	0.16	0.18	0.05	-0.07	-0.12	-0.13
-0.12	-0.10	0.02	0.11	-0.07	-0.04	0.16	0.18	0.05	-0.07	-0.12	-0.13
-0.12	-0.09	0.03	0.11	-0.07	-0.03	0.16	0.18	0.04	-0.07	-0.12	-0.13
-0.14	-0.10	0.04	0.12	-0.09	-0.03	0.17	0.18	0.04	-0.07	-0.12	-0.13
-0.14	-0.10	0.04	0.12	-0.09	-0.03	0.17	0.18	0.04	-0.07	-0.12	-0.13
-0.14	-0.11	0.03	0.13	-0.09	-0.04	0.16	0.20	0.04	-0.07	-0.12	-0.13
-0.16	-0.13	0.03	0.14	-0.09	-0.05	0.17	0.21	0.04	-0.07	-0.12	-0.13
-0.16	-0.14	0.02	0.15	-0.09	-0.06	0.17	0.21	0.04	-0.07	-0.12	-0.14
-0.14	-0.13	0.01	0.14	-0.08	-0.06	0.17	0.21	0.04	-0.07	-0.12	-0.14
-0.14	-0.13	0.01	0.14	-0.08	-0.06	0.17	0.21	0.04	-0.07	-0.12	-0.14
-0.13	-0.13	0.01	0.13	-0.07	-0.06	0.17	0.21	0.04	-0.07	-0.12	-0.14
-0.14	-0.12	0.01	0.13	-0.07	-0.06	0.18	0.22	0.04	-0.07	-0.12	-0.14
-0.15	-0.12	0.02	0.14	-0.08	-0.05	0.19	0.22	0.04	-0.07	-0.12	-0.14
-0.15	-0.12	0.03	0.14	-0.09	-0.04	0.20	0.22	0.04	-0.07	-0.12	-0.14
-0.16	-0.12	0.04	0.14	-0.10	-0.04	0.20	0.22	0.04	-0.07	-0.12	-0.14
-0.17	-0.12	0.05	0.14	-0.11	-0.03	0.20	0.23	0.04	-0.07	-0.12	-0.13
-0.18	-0.12	0.06	0.15	-0.12	-0.03	0.20	0.23	0.04	-0.07	-0.12	-0.14
-0.19	-0.12	0.07	0.16	-0.13	-0.02	0.20	0.23	0.04	-0.07	-0.13	-0.15
-0.20	-0.12	0.08	0.16	-0.14	-0.02	0.20	0.23	0.04	-0.07	-0.13	-0.15
-0.19	-0.12	0.07	0.15	-0.13	-0.03	0.20	0.23	0.04	-0.07	-0.13	-0.15
-0.18	-0.12	0.06	0.15	-0.12	-0.03	0.19	0.24	0.05	-0.07	-0.13	-0.15
-0.17	-0.12	0.05	0.15	-0.11	-0.03	0.20	0.24	0.06	-0.07	-0.13	-0.15
-0.17	-0.12	0.05	0.14	-0.11	-0.04	0.23	0.26	0.08	-0.07	-0.13	-0.15
-0.17	-0.12	0.04	0.14	-0.10	-0.04	0.24	0.28	0.07	-0.07	-0.13	-0.15
-0.16	-0.12	0.04	0.14	-0.10	-0.04	0.24	0.28	0.07	-0.07	-0.13	-0.15
-0.16	-0.12	0.04	0.14	-0.10	-0.04	0.24	0.28	0.07	-0.07	-0.14	-0.15
-0.15	-0.12	0.03	0.14	-0.09	-0.04	0.24	0.28	0.07	-0.07	-0.14	-0.15
-0.15	-0.12	0.03	0.13	-0.09	-0.05	0.24	0.29	0.07	-0.07	-0.14	-0.15
-0.14	-0.12	0.03	0.13	-0.09	-0.05	0.24	0.29	0.07	-0.07	-0.14	-0.15
-0.16	-0.12	0.04	0.14	-0.10	-0.04	0.27	0.32	0.09	-0.07	-0.14	-0.15
-0.18	-0.12	0.06	0.15	-0.12	-0.03	0.27	0.32	0.10	-0.07	-0.14	-0.15
-0.19	-0.12	0.07	0.16	-0.13	-0.02	0.28	0.33	0.10	-0.07	-0.14	-0.15
-0.20	-0.12	0.07	0.16	-0.14	-0.02	0.29	0.34	0.11	-0.07	-0.14	-0.15
-0.20	-0.12	0.07	0.16	-0.14	-0.02	0.30	0.35	0.11	-0.07	-0.14	-0.15
-0.20	-0.12	0.07	0.16	-0.14	-0.02	0.30	0.37	0.11	-0.07	-0.14	-0.15
-0.20	-0.12	0.08	0.16	-0.14	-0.02	0.31	0.39	0.12	-0.07	-0.14	-0.15
-0.20	-0.12	0.08	0.16	-0.14	-0.02	0.32	0.41	0.13	-0.07	-0.14	-0.15
-0.20	-0.12	0.08	0.16	-0.14	-0.02	0.33	0.42	0.13	-0.07	-0.14	-0.15
-0.21	-0.13	0.08	0.17	-0.14	-0.03	0.33	0.43	0.13	-0.07	-0.14	-0.15
-0.21	-0.13	0.08	0.17	-0.14	-0.03	0.35	0.45	0.14	-0.07	-0.14	-0.15
-0.21	-0.14	0.07	0.17	-0.14	-0.03	0.37	0.46	0.14	-0.07	-0.14	-0.15
-0.21	-0.14	0.07	0.18	-0.14	-0.03	0.38	0.48	0.15	-0.07	-0.14	-0.15
-0.22	-0.15	0.07	0.18	-0.14	-0.04	0.40	0.51	0.17	-0.07	-0.15	-0.15
-0.23	-0.17	0.07	0.20	-0.15	-0.05	0.42	0.54	0.18	-0.07	-0.15	-0.15
-0.23	-0.16	0.07	0.20	-0.15	-0.04	0.42	0.56	0.19	-0.07	-0.15	-0.15
-0.26	-0.16	0.10	0.21	-0.18	-0.03	0.43	0.57	0.20	-0.07	-0.16	-0.16
-0.28	-0.16	0.12	0.22	-0.20	-0.02	0.45	0.59	0.21	-0.07	-0.17	-0.17
-0.27	-0.16	0.12	0.22	-0.19	-0.02	0.46	0.61	0.21	-0.07	-0.18	-0.17
-0.27	-0.15	0.12	0.21	-0.19	-0.02	0.47	0.62	0.21	-0.07	-0.18	-0.17
-0.27	-0.15	0.12	0.21	-0.19	-0.02	0.48	0.65	0.22	-0.07	-0.19	-0.18
-0.27	-0.16	0.11	0.21	-0.19	-0.02	0.50	0.66	0.22	-0.07	-0.19	-0.18
-0.28	-0.15	0.13	0.22	-0.21	-0.01	0.51	0.67	0.23	-0.07	-0.19	-0.18
-0.32	-0.15	0.17	0.24	-0.25	0.01	0.52	0.69	0.23	-0.07	-0.19	-0.18
-0.34	-0.15	0.18	0.24	-0.26	0.02	0.53	0.70	0.23	-0.07	-0.19	-0.18
-0.33	-0.15	0.18	0.24	-0.26	0.02	0.54	0.72	0.24	-0.06	-0.19	-0.18
-0.33	-0.14	0.18	0.24	-0.26	0.02	0.56	0.75	0.26	-0.06	-0.19	-0.17
-0.33	-0.14	0.19	0.24	-0.26	0.02	0.57	0.77	0.28	-0.06	-0.18	-0.17
-0.33	-0.14	0.19	0.23	-0.26	0.03	0.58	0.78	0.28	-0.06	-0.18	-0.17
-0.33	-0.14	0.18	0.23	-0.26	0.02	0.59	0.79	0.29	-0.06	-0.18	-0.17
-0.33	-0.14	0.18	0.23	-0.26	0.02	0.60	0.81	0.29	-0.05	-0.18	-0.16
-0.32	-0.14	0.18	0.23	-0.25	0.02	0.61	0.82	0.30	-0.05	-0.18	-0.15
-0.32	-0.14	0.18	0.23	-0.25	0.02	0.61	0.83	0.31	-0.05	-0.18	-0.15
-0.31	-0.13	0.18	0.22	-0.25	0.02	0.62	0.83	0.31	-0.04	-0.18	-0.14
-0.30	-0.13	0.17	0.22	-0.24	0.02	0.62	0.84	0.32	-0.04	-0.18	-0.14
-0.30	-0.13	0.17	0.22	-0.24	0.02	0.63	0.84	0.32	-0.04	-0.18	-0.13
-0.30	-0.13	0.18	0.21	-0.24	0.02	0.62	0.86	0.32	-0.04	-0.17	-0.12
-0.30	-0.12	0.17	0.21	-0.23	0.02	0.62	0.86	0.31	-0.04	-0.17	-0.12
-0.29	-0.13	0.17	0.21	-0.23	0.02	0.61	0.85	0.32	-0.04	-0.18	-0.11
-0.29	-0.12	0.17	0.21	-0.23	0.02	0.61	0.84	0.32	-0.04	-0.17	-0.11
-0.28	-0.11	0.17	0.20	-0.22	0.03	0.61	0.84	0.32	-0.02	-0.16	-0.11
-0.27	-0.10	0.17	0.18	-0.22	0.03	0.60	0.83	0.32	-0.01	-0.15	-0.10
-0.26	-0.10	0.16	0.18	-0.21	0.03	0.60	0.82	0.31	-0.01	-0.15	-0.10
-0.25	-0.09	0.16	0.17	-0.20	0.04	0.59	0.81	0.31	0.00	-0.14	-0.09
-0.24	-0.08	0.16	0.16	-0.20	0.04	0.57	0.81	0.31	0.01	-0.12	-0.09
-0.23	-0.07	0.16	0.15	-0.20	0.04	0.56	0.79	0.31	0.02	-0.12	-0.08
-0.22	-0.06	0.15	0.14	-0.19	0.04	0.54	0.77	0.31	0.03	-0.11	-0.07
-0.20	-0.06	0.15	0.13	-0.17	0.04	0.53	0.75	0.31	0.03	-0.10	-0.06
-0.19	-0.05	0.14	0.12	-0.17	0.05	0.51	0.71	0.31	0.04	-0.09	-0.05
-0.18	-0.04	0.14	0.11	-0.16	0.05	0.48	0.68	0.29	0.04	-0.09	-0.04
-0.17	-0.03	0.14	0.10	-0.15	0.05	0.46	0.63	0.27	0.04	-0.08	-0.03
-0.16	-0.02	0.13	0.09	-0.14	0.05	0.43	0.59	0.26	0.04	-0.08	-0.02
-0.14	-0.01	0.13	0.08	-0.14	0.06	0.40	0.54	0.24	0.04	-0.07	-0.01
-0.13	-0.01	0.12	0.07	-0.13	0.06	0.37	0.51	0.22	0.04	-0.06	-0.00
-0.12	-0.01	0.12	0.06	-0.12	0.06	0.34	0.47	0.20	0.04	-0.06	0.00
-0.10	0.01	0.11	0.05	-0.11	0.06	0.30	0.43	0.19	0.03	-0.05	0.00
-0.09	0.02	0.10	0.04	-0.10	0.06	0.27	0.39	0.17	0.03	-0.05	0.01
-0.07	0.02	0.10	0.03	-0.09	0.06	0.24	0.35	0.16	0.03	-0.04	0.01
-0.06	0.03	0.09	0.01	-0.08	0.06	0.21	0.31	0.15	0.03	-0.04	0.01
-0.04	0.04	0.09	0.00	-0.07	0.06	0.20	0.27	0.12	0.03	-0.04	0.02
-0.04	0.04	0.08	-0.00	-0.06	0.06	0.18	0.24	0.11	0.02	-0.03	0.04
-0.01	0.07	0.07	-0.03	-0.04	0.07	0.15	0.20	0.09	0.02	-0.03	0.04
0.01	0.07	0.06	-0.04	-0.02	0.07	0.12	0.18	0.08	0.02	-0.02	0.04
0.01	0.06	0.05	-0.03	-0.02	0.05	0.10	0.15	0.06	0.01	-0.02	0.05
0.01	0.05	0.04	-0.03	-0.01	0.04	0.10	0.13	0.04	0.01	-0.02	0.05
0.02	0.04	0.02	-0.03	-0.00	0.03	0.09	0.12	0.03	0.01	-0.02	0.05
0.01	0.03	0.02	-0.02	-0.00	0.02	0.08	0.11	0.02	0.01	-0.01	0.06
0.01	0.02	0.01	-0.01	-0.00	0.02	0.08	0.10	0.02	0.01	-0.01	0.06
-0.00	0.01	0.01	-0.00	-0.01	0.01	0.07	0.09	0.02	0.00	-0.01	0.07
-0.01	0.00	0.01	0.01	-0.01	0.01	0.07	0.08	0.02	0.01	-0.01	0.07
-0.01	-0.00	0.01	0.01	-0.01	0.00	0.06	0.07	0.02	0.01	-0.01	0.07
-0.01	-0.01	0.01	0.01	-0.01	-0.00	0.06	0.06	0.01	0.00	-0.01	0.07
-0.01	-0.01	0.00	0.01	-0.01	-0.00	0.05	0.06	0.02	0.00	-0.00	0.07
-0.02	-0.02	0.00	0.02	-0.01	-0.01	0.05	0.05	0.01	-0.00	0.00	0.07
-0.02	-0.02	0.00	0.02	-0.01	-0.01	0.04	0.04	0.01	-0.01	0.00	0.07
-0.01	-0.02	-0.00	0.01	-0.00	-0.01	0.04	0.03	0.00	-0.01	-0.00	0.07
-0.00	-0.01	-0.01	0.01	0.00	-0.01	0.04	0.02	-0.00	-0.01	-0.01	0.07
0.00	-0.01	-0.01	0.00	0.01	-0.01	0.04	0.02	-0.01	-0.01	-0.01	0.07
0.01	-0.01	-0.01	-0.00	0.01	-0.01	0.04	0.01	-0.01	-0.01	-0.01	0.07
0.01	-0.01	-0.01	-0.00	0.01	-0.01	0.04	0.00	-0.01	-0.01	-0.01	0.07
0.01	-0.00	-0.01	-0.01	0.01	-0.01	0.03	0.00	-0.02	-0.01	-0.01	0.07
0.02	0.00	-0.02	-0.01	0.02	-0.01	0.03	0.01	-0.02	-0.01	-0.01	0.06
0.03	0.01	-0.02	-0.02	0.02	-0.01	0.03	0.01	-0.03	-0.02	-0.01	0.06
0.03	0.01	-0.02	-0.01	0.02	-0.01	0.02	0.01	-0.03	-0.02	-0.02	0.06
0.03	0.01	-0.01	-0.02	0.02	-0.00	0.02	0.01	-0.03	-0.02	-0.02	0.06
0.03	0.01	-0.01	-0.02	0.02	0.00	0.02	0.01	-0.03	-0.02	-0.02	0.06
0.03	0.01	-0.01	-0.02	0.02	-0.00	0.02	0.01	-0.03	-0.03	-0.02	0.06
0.04	0.02	-0.01	-0.03	0.03	0.00	0.02	0.01	-0.04	-0.03	-0.02	0.05
0.05	0.04	-0.01	-0.05	0.03	0.01	0.01	0.01	-0.04	-0.03	-0.02	0.06
0.07	0.05	-0.01	-0.06	0.04	0.02	0.01	0.01	-0.04	-0.03	-0.02	0.06
0.06	0.05	-0.01	-0.05	0.04	0.02	0.01	0.01	-0.04	-0.03	-0.02	0.06
0.06	0.04	-0.01	-0.05	0.04	0.01	0.01	0.01	-0.04	-0.03	-0.02	0.06
0.06	0.04	-0.01	-0.05	0.04	0.01	0.01	0.01	-0.04	-0.04	-0.02	0.05
0.05	0.04	-0.01	-0.05	0.04	0.01	0.01	0.01	-0.04	-0.04	-0.02	0.05
0.05	0.04	-0.01	-0.04	0.03	0.01	0.01	0.01	-0.04	-0.04	-0.02	0.05
0.05	0.04	-0.01	-0.04	0.03	0.01	0.01	0.01	-0.05	-0.04	-0.04	0.05
0.05	0.03	-0.02	-0.04	0.03	0.01	0.02	0.01	-0.05	-0.04	-0.04	0.05
0.04	0.03	-0.01	-0.03	0.03	0.01	0.03	0.01	-0.05	-0.04	-0.04	0.04
0.03	0.03	-0.01	-0.03	0.02	0.01	0.02	0.01	-0.05	-0.04	-0.04	0.04
0.04	0.03	-0.01	-0.03	0.02	0.01	0.03	0.01	-0.06	-0.04	-0.04	0.04
0.03	0.02	-0.01	-0.03	0.02	0.01	0.03	0.01	-0.06	-0.04	-0.05	0.04
0.03	0.02	-0.01	-0.03	0.02	0.01	0.03	0.01	-0.06	-0.04	-0.05	0.04
0.03	0.02	-0.01	-0.02	0.02	0.00	0.03	0.01	-0.06	-0.05	-0.05	0.04
0.03	0.01	-0.01	-0.02	0.02	0.00	0.02	0.01	-0.06	-0.04	-0.05	0.04
0.03	0.01	-0.01	-0.02	0.02	0.00	0.02	0.01	-0.06	-0.04	-0.06	0.04
0.02	0.01	-0.01	-0.02	0.01	0.00	0.02	0.01	-0.06	-0.04	-0.06	0.04
0.02	0.01	-0.01	-0.01	0.01	0.00	0.02	0.01	-0.06	-0.04	-0.06	0.03
0.02	0.01	-0.01	-0.02	0.01	0.00	0.02	0.00	-0.06	-0.05	-0.06	0.03
0.02	0.01	-0.01	-0.01	0.01	0.00	0.02	-0.00	-0.06	-0.05	-0.06	0.02
0.01	0.01	-0.01	-0.01	0.01	-0.00	0.02	-0.01	-0.06	-0.05	-0.06	0.02
0.02	0.01	-0.01	-0.01	0.01	-0.00	0.03	-0.01	-0.06	-0.05	-0.06	0.02
0.01	0.00	-0.01	-0.01	0.01	-0.00	0.03	-0.01	-0.07	-0.05	-0.06	0.01
0.00	-0.00	-0.00	0.00	0.00	-0.00	0.04	-0.01	-0.07	-0.05	-0.06	0.01
0.00	0.00	0.00	0.00	0.00	0.00	0.05	-0.00	-0.07	-0.05	-0.06	0.01
0.00	0.00	0.00	0.00	0.00	0.00	0.04	0.00	-0.07	-0.05	-0.06	0.01
-0.01	-0.00	0.00	0.01	-0.01	0.00	0.04	0.00	-0.07	-0.05	-0.06	0.01
-0.01	-0.01	0.01	0.01	-0.01	0.00	0.04	0.00	-0.06	-0.05	-0.06	0.01
-0.02	-0.01	0.01	0.01	-0.01	0.00	0.04	0.01	-0.05	-0.06	-0.07	0.01
-0.02	-0.01	0.01	0.01	-0.01	0.00	0.04	0.01	-0.05	-0.07	-0.08	0.01
-0.01	-0.01	0.01	0.01	-0.01	-0.00	0.04	0.01	-0.04	-0.07	-0.07	0.01
-0.01	-0.01	0.00	0.01	-0.01	-0.00	0.04	0.01	-0.04	-0.07	-0.07	0.01
-0.01	-0.01	0.00	0.01	-0.01	-0.01	0.04	0.01	-0.04	-0.06	-0.07	0.00
-0.01	-0.01	-0.00	0.01	-0.01	-0.01	0.04	0.02	-0.03	-0.06	-0.06	-0.00
-0.01	-0.01	-0.01	0.01	-0.00	-0.01	0.04	0.02	-0.03	-0.06	-0.06	0.00
-0.01	-0.01	-0.01	0.01	0.00	-0.01	0.04	0.02	-0.03	-0.06	-0.06	0.00
0.01	-0.00	-0.01	-0.00	0.01	-0.01	0.04	0.02	-0.02	-0.06	-0.05	0.00
0.01	0.01	-0.00	-0.01	0.01	0.00	0.05	0.03	-0.02	-0.05	-0.04	0.00
0.01	0.02	0.01	-0.02	0.00	0.01	0.06	0.03	-0.01	-0.04	-0.04	0.00
0.02	0.03	0.02	-0.03	-0.00	0.03	0.06	0.04	-0.01	-0.03	-0.03	0.00
0.01	0.04	0.03	-0.03	-0.01	0.04	0.07	0.04	-0.01	-0.03	-0.03	0.00
0.00	0.04	0.04	-0.02	-0.02	0.04	0.07	0.05	-0.01	-0.02	-0.02	-0.01
0.02	0.07	0.05	-0.05	-0.01	0.06	0.08	0.04	0.00	-0.01	-0.01	-0.02
0.03	0.09	0.06	-0.06	-0.02	0.07	0.08	0.05	0.01	-0.00	-0.01	-0.02
0.02	0.08	0.06	-0.05	-0.02	0.07	0.08	0.07	0.01	0.00	-0.00	-0.01
0.03	0.08	0.06	-0.05	-0.01	0.07	0.09	0.07	0.02	0.01	0.00	0.00
0.00	0.08	0.08	-0.04	-0.04	0.08	0.09	0.07	0.02	0.01	0.00	0.00
-0.02	0.08	0.10	-0.03	-0.06	0.09	0.08	0.09	0.03	0.02	0.01	0.01
-0.03	0.07	0.10	-0.02	-0.07	0.09	0.08	0.09	0.04	0.02	0.01	0.02
-0.02	0.07	0.09	-0.03	-0.06	0.08	0.07	0.08	0.04	0.03	0.02	0.03
-0.01	0.07	0.09	-0.03	-0.05	0.08	0.07	0.07	0.05	0.04	0.02	0.03
-0.01	0.07	0.08	-0.03	-0.05	0.08	0.07	0.07	0.04	0.04	0.02	0.03
-0.01	0.07	0.07	-0.03	-0.04	0.07	0.06	0.06	0.04	0.04	0.02	0.03
0.01	0.07	0.07	-0.04	-0.03	0.07	0.06	0.05	0.03	0.03	0.01	0.03
0.01	0.07	0.06	-0.04	-0.02	0.06	0.05	0.04	0.02	0.02	0.01	0.03
0.01	0.07	0.06	-0.04	-0.02	0.06	0.03	0.04	0.02	0.01	0.01	0.03
0.03	0.07	0.04	-0.05	-0.01	0.06	0.00	0.03	0.01	0.00	0.00	0.02
0.05	0.08	0.03	-0.07	0.01	0.06	-0.01	0.02	0.01	-0.01	0.00	0.02
0.08	0.10	0.02	-0.09	0.03	0.06	-0.01	0.01	0.00	-0.01	-0.00	0.02
0.10	0.11	0.01	-0.10	0.04	0.06	-0.02	0.00	-0.01	-0.02	-0.01	0.02
0.09	0.09	0.00	-0.09	0.04	0.04	-0.03	-0.01	-0.01	-0.03	-0.01	0.02
0.08	0.06	-0.01	-0.07	0.04	0.03	-0.03	-0.02	-0.02	-0.03	-0.01	0.02
0.08	0.05	-0.02	-0.06	0.05	0.01	-0.04	-0.03	-0.03	-0.03	-0.02	0.01
0.07	0.05	-0.02	-0.06	0.05	0.01	-0.04	-0.03	-0.04	-0.04	-0.02	0.01
0.06	0.04	-0.01	-0.05	0.04	0.01	-0.04	-0.04	-0.05	-0.04	-0.02	0.01
0.05	0.04	-0.01	-0.04	0.03	0.01	-0.05	-0.04	-0.05	-0.04	-0.03	0.01
0.04	0.04	-0.01	-0.04	0.02	0.01	-0.07	-0.04	-0.05	-0.05	-0.03	0.01
0.03	0.03	-0.00	-0.03	0.02	0.02	-0.07	-0.04	-0.06	-0.05	-0.04	0.01
0.03	0.03	-0.00	-0.03	0.02	0.01	-0.07	-0.04	-0.06	-0.04	-0.04	0.01
0.04	0.02	-0.01	-0.03	0.02	0.01	-0.06	-0.04	-0.06	-0.04	-0.04	0.01
0.04	0.01	-0.02	-0.03	0.03	-0.00	-0.06	-0.04	-0.06	-0.04	-0.04	0.01
0.04	0.01	-0.03	-0.03	0.03	-0.01	-0.06	-0.04	-0.06	-0.04	-0.04	0.01
0.04	0.01	-0.04	-0.03	0.04	-0.01	-0.05	-0.04	-0.06	-0.04	-0.04	0.01
0.04	0.00	-0.04	-0.02	0.04	-0.02	-0.05	-0.04	-0.06	-0.04	-0.04	0.00
0.04	-0.01	-0.05	-0.02	0.05	-0.03	-0.04	-0.04	-0.06	-0.04	-0.04	0.01
0.04	-0.01	-0.06	-0.02	0.05	-0.03	-0.04	-0.04	-0.06	-0.04	-0.04	0.01
0.04	-0.01	-0.05	-0.01	0.04	-0.03	-0.03	-0.04	-0.06	-0.04	-0.04	0.01
0.03	-0.02	-0.05	-0.00	0.04	-0.04	-0.02	-0.04	-0.06	-0.03	-0.04	0.01
0.01	-0.04	-0.05	0.01	0.03	-0.04	-0.01	-0.04	-0.06	-0.04	-0.04	0.00
0.00	-0.05	-0.05	0.02	0.03	-0.05	-0.00	-0.04	-0.06	-0.03	-0.04	-0.01
-0.01	-0.06	-0.05	0.04	0.02	-0.06	0.01	-0.04	-0.06	-0.03	-0.04	-0.01
-0.02	-0.07	-0.05	0.04	0.02	-0.06	0.01	-0.04	-0.06	-0.03	-0.04	-0.01
-0.02	-0.07	-0.05	0.05	0.01	-0.06	0.01	-0.04	-0.06	-0.03	-0.04	-0.02
-0.03	-0.08	-0.05	0.05	0.01	-0.06	0.01	-0.04	-0.06	-0.03	-0.05	-0.03
-0.04	-0.08	-0.04	0.06	0.00	-0.06	0.01	-0.04	-0.06	-0.03	-0.05	-0.03
-0.04	-0.09	-0.04	0.07	-0.00	-0.06	0.01	-0.04	-0.06	-0.04	-0.05	-0.04
-0.02	-0.08	-0.06	0.05	0.02	-0.07	0.01	-0.04	-0.06	-0.04	-0.05	-0.04
-0.02	-0.11	-0.09	0.06	0.04	-0.10	0.01	-0.04	-0.06	-0.04	-0.06	-0.04
-0.03	-0.13	-0.09	0.08	0.03	-0.11	0.01	-0.04	-0.06	-0.06	-0.07	-0.05
-0.04	-0.12	-0.08	0.08	0.02	-0.10	0.01	-0.04	-0.07	-0.07	-0.08	-0.06
-0.04	-0.12	-0.08	0.09	0.02	-0.10	0.01	-0.04	-0.07	-0.07	-0.08	-0.06
-0.05	-0.12	-0.07	0.09	0.01	-0.10	0.01	-0.04	-0.07	-0.07	-0.08	-0.06
-0.06	-0.13	-0.07	0.10	0.00	-0.10	0.01	-0.04	-0.07	-0.07	-0.08	-0.06
-0.07	-0.13	-0.06	0.10	-0.00	-0.10	0.01	-0.04	-0.07	-0.07	-0.08	-0.06
-0.08	-0.13	-0.05	0.10	-0.01	-0.09	0.01	-0.04	-0.07	-0.07	-0.08	-0.05
-0.08	-0.13	-0.05	0.10	-0.01	-0.09	0.01	-0.04	-0.07	-0.07	-0.08	-0.05
-0.09	-0.13	-0.04	0.11	-0.02	-0.09	0.01	-0.04	-0.07	-0.07	-0.08	-0.05
-0.09	-0.14	-0.05	0.11	-0.02	-0.09	0.01	-0.04	-0.07	-0.08	-0.08	-0.05
-0.09	-0.14	-0.04	0.11	-0.03	-0.09	0.00	-0.04	-0.07	-0.08	-0.08	-0.05
-0.07	-0.14	-0.06	0.10	-0.01	-0.10	0.01	-0.04	-0.07	-0.08	-0.08	-0.05
-0.02	-0.14	-0.12	0.08	0.05	-0.12	0.03	-0.04	-0.07	-0.08	-0.08	-0.05
-0.02	-0.13	-0.11	0.07	0.05	-0.12	0.04	-0.04	-0.08	-0.08	-0.08	-0.05
-0.02	-0.12	-0.10	0.07	0.04	-0.11	0.04	-0.04	-0.08	-0.08	-0.08	-0.04
-0.02	-0.11	-0.09	0.07	0.04	-0.10	0.04	-0.04	-0.08	-0.08	-0.08	-0.04
-0.02	-0.10	-0.08	0.06	0.03	-0.09	0.04	-0.04	-0.08	-0.08	-0.08	-0.04
-0.02	-0.10	-0.07	0.06	0.03	-0.09	0.04	-0.04	-0.08	-0.09	-0.08	-0.04
-0.02	-0.09	-0.07	0.05	0.03	-0.08	0.04	-0.04	-0.08	-0.09	-0.08	-0.04
-0.02	-0.08	-0.05	0.05	0.01	-0.07	0.04	-0.04	-0.08	-0.09	-0.08	-0.04
-0.02	-0.09	-0.07	0.06	0.03	-0.08	0.04	-0.04	-0.08	-0.09	-0.08	-0.04
-0.01	-0.11	-0.10	0.06	0.04	-0.10	0.04	-0.05	-0.08	-0.09	-0.08	-0.04
-0.02	-0.10	-0.08	0.06	0.03	-0.09	0.04	-0.04	-0.08	-0.09	-0.08	-0.04
-0.02	-0.09	-0.07	0.06	0.03	-0.08	0.04	-0.03	-0.08	-0.09	-0.08	-0.04
-0.02	-0.08	-0.07	0.05	0.02	-0.07	0.04	-0.02	-0.07	-0.08	-0.07	-0.04
-0.02	-0.08	-0.05	0.05	0.02	-0.07	0.04	0.00	-0.05	-0.07	-0.05	-0.03
-0.03	-0.07	-0.04	0.05	0.01	-0.06	0.04	0.04	-0.03	-0.05	-0.04	-0.02
-0.03	-0.06	-0.04	0.04	0.01	-0.05	0.07	0.07	0.01	-0.01	-0.02	-0.01
-0.03	-0.06	-0.03	0.04	-0.00	-0.04	0.09	0.13	0.04	0.03	-0.01	-0.00
-0.01	-0.03	-0.02	0.02	0.01	-0.03	0.12	0.20	0.10	0.08	0.01	0.01
0.02	0.00	-0.02	-0.01	0.02	-0.01	0.16	0.27	0.18	0.12	0.04	0.01
0.04	0.03	-0.01	-0.04	0.03	0.01	0.18	0.35	0.25	0.16	0.08	0.03
0.07	0.06	-0.01	-0.06	0.04	0.02	0.20	0.40	0.33	0.23	0.14	0.06
0.10	0.10	-0.01	-0.10	0.06	0.04	0.16	0.36	0.40	0.33	0.21	0.11
0.14	0.17	0.02	-0.15	0.06	0.09	0.05	0.16	0.38	0.38	0.26	0.16
0.17	0.26	0.10	-0.21	0.04	0.18	-0.07	-0.12	0.32	0.40	0.31	0.22
0.20	0.38	0.18	-0.29	0.01	0.28	-0.17	-0.36	0.29	0.44	0.37	0.28
0.27	0.50	0.23	-0.38	0.01	0.37	-0.28	-0.58	0.23	0.47	0.43	0.34
0.34	0.56	0.23	-0.45	0.05	0.40	-0.45	-0.84	0.12	0.48	0.47	0.38
0.42	0.65	0.23	-0.53	0.10	0.44	-0.67	-1.20	-0.03	0.48	0.54	0.45
0.54	0.74	0.20	-0.64	0.17	0.47	-0.94	-1.61	-0.20	0.46	0.61	0.53
0.66	0.80	0.14	-0.73	0.26	0.47	-1.24	-2.02	-0.42	0.41	0.67	0.60
0.74	0.83	0.10	-0.79	0.32	0.47	-1.51	-2.42	-0.65	0.36	0.70	0.67
0.84	0.86	0.02	-0.85	0.41	0.44	-1.78	-2.72	-0.83	0.36	0.76	0.73
0.98	0.91	-0.07	-0.95	0.53	0.42	-2.05	-2.97	-0.96	0.35	0.84	0.81
1.12	0.93	-0.19	-1.02	0.65	0.37	-2.27	-3.11	-1.04	0.37	0.93	0.89
1.26	0.93	-0.34	-1.09	0.80	0.30	-2.40	-3.13	-1.06	0.43	1.02	0.94
1.44	0.94	-0.49	-1.19	0.96	0.23	-2.46	-3.06	-1.02	0.49	1.10	0.99
1.51	0.93	-0.58	-1.23	1.05	0.18	-2.44	-2.88	-0.92	0.58	1.18	1.03
1.59	0.92	-0.66	-1.25	1.12	0.13	-2.35	-2.65	-0.77	0.69	1.28	1.08
1.64	0.90	-0.74	-1.27	1.19	0.08	-2.25	-2.44	-0.65	0.79	1.39	1.12
1.65	0.83	-0.82	-1.24	1.23	0.00	-2.15	-2.24	-0.55	0.85	1.42	1.12
1.59	0.71	-0.88	-1.15	1.24	-0.09	-1.96	-1.98	-0.44	0.86	1.36	1.06
1.44	0.58	-0.86	-1.01	1.15	-0.14	-1.75	-1.71	-0.39	0.81	1.33	1.02
1.32	0.47	-0.84	-0.90	1.08	-0.18	-1.56	-1.50	-0.35	0.68	1.20	0.92
1.18	0.40	-0.78	-0.79	0.98	-0.19	-1.35	-1.31	-0.33	0.57	1.03	0.80
0.98	0.35	-0.63	-0.66	0.81	-0.14	-1.13	-1.10	-0.34	0.46	0.87	0.70
0.76	0.28	-0.47	-0.52	0.61	-0.09	-0.92	-0.90	-0.34	0.32	0.66	0.57
0.54	0.20	-0.33	-0.37	0.44	-0.06	-0.72	-0.73	-0.34	0.14	0.43	0.41
0.26	0.10	-0.16	-0.18	0.21	-0.03	-0.48	-0.57	-0.35	-0.10	0.12	0.22
0.09	0.03	-0.06	-0.06	0.07	-0.01	-0.28	-0.39	-0.32	-0.23	-0.06	0.06
0.04	-0.01	-0.04	-0.02	0.04	-0.03	-0.16	-0.24	-0.24	-0.23	-0.09	-0.03
-0.04	-0.05	-0.01	0.04	-0.01	-0.03	-0.08	-0.14	-0.18	-0.20	-0.14	-0.04
-0.07	-0.08	-0.01	0.07	-0.03	-0.04	-0.04	-0.07	-0.13	-0.16	-0.14	-0.05
-0.08	-0.08	-0.00	0.08	-0.04	-0.04	0.01	-0.01	-0.08	-0.15	-0.13	-0.07
-0.11	-0.11	0.00	0.11	-0.06	-0.05	0.06	0.04	-0.04	-0.14	-0.14	-0.08
-0.14	-0.14	0.01	0.14	-0.07	-0.07	0.10	0.08	-0.02	-0.13	-0.13	-0.09
-0.14	-0.12	0.01	0.13	-0.08	-0.06	0.12	0.12	-0.01	-0.12	-0.13	-0.10
-0.13	-0.11	0.02	0.12	-0.07	-0.05	0.12	0.12	-0.01	-0.12	-0.13	-0.12
-0.16	-0.14	0.02	0.15	-0.09	-0.06	0.13	0.12	-0.01	-0.11	-0.13	-0.12
-0.18	-0.16	0.02	0.17	-0.10	-0.07	0.13	0.13	-0.01	-0.10	-0.13	-0.12
-0.17	-0.15	0.02	0.16	-0.10	-0.07	0.14	0.13	-0.00	-0.10	-0.13	-0.12
-0.17	-0.15	0.01	0.16	-0.09	-0.07	0.14	0.14	0.00	-0.10	-0.12	-0.12
-0.17	-0.16	0.01	0.17	-0.10	-0.07	0.14	0.15	0.00	-0.10	-0.12	-0.12
-0.17	-0.16	0.01	0.16	-0.09	-0.07	0.15	0.16	0.01	-0.10	-0.12	-0.12
-0.18	-0.17	0.01	0.18	-0.10	-0.08	0.15	0.15	0.01	-0.10	-0.12	-0.12
-0.21	-0.20	0.01	0.20	-0.11	-0.09	0.15	0.15	0.01	-0.10	-0.12	-0.12
-0.20	-0.19	0.01	0.19	-0.10	-0.09	0.15	0.15	0.01	-0.10	-0.12	-0.12
-0.19	-0.19	0.00	0.19	-0.10	-0.09	0.15	0.15	0.01	-0.10	-0.12	-0.12
-0.19	-0.19	0.00	0.19	-0.10	-0.10	0.15	0.15	0.02	-0.10	-0.12	-0.12
-0.19	-0.19	-0.00	0.19	-0.09	-0.10	0.15	0.15	0.03	-0.09	-0.12	-0.12
-0.18	-0.18	-0.01	0.18	-0.09	-0.10	0.15	0.15	0.03	-0.09	-0.12	-0.12
-0.18	-0.18	-0.01	0.18	-0.09	-0.10	0.15	0.15	0.04	-0.09	-0.12	-0.12
-0.18	-0.18	-0.01	0.18	-0.08	-0.10	0.15	0.15	0.04	-0.09	-0.12	-0.12
-0.17	-0.18	-0.01	0.18	-0.08	-0.10	0.15	0.15	0.04	-0.09	-0.12	-0.12
-0.17	-0.18	-0.01	0.17	-0.08	-0.10	0.16	0.17	0.05	-0.09	-0.11	-0.12
-0.17	-0.18	-0.01	0.17	-0.07	-0.10	0.16	0.18	0.05	-0.09	-0.11	-0.12
-0.17	-0.18	-0.01	0.17	-0.07	-0.10	0.16	0.18	0.04	-0.09	-0.11	-0.12
-0.16	-0.18	-0.02	0.17	-0.07	-0.10	0.16	0.18	0.04	-0.09	-0.11	-0.12
-0.15	-0.18	-0.02	0.17	-0.07	-0.10	0.17	0.18	0.06	-0.09	-0.11	-0.12
-0.16	-0.17	-0.01	0.17	-0.07	-0.09	0.18	0.18	0.07	-0.08	-0.12	-0.12
-0.17	-0.17	-0.00	0.17	-0.09	-0.09	0.18	0.18	0.06	-0.09	-0.14	-0.13
-0.18	-0.17	0.01	0.18	-0.10	-0.08	0.18	0.18	0.07	-0.09	-0.14	-0.14
-0.20	-0.17	0.02	0.18	-0.11	-0.08	0.18	0.18	0.07	-0.09	-0.15	-0.15
-0.21	-0.17	0.04	0.19	-0.12	-0.07	0.18	0.19	0.07	-0.09	-0.15	-0.15
-0.22	-0.17	0.04	0.20	-0.13	-0.07	0.18	0.19	0.07	-0.09	-0.15	-0.14
-0.21	-0.17	0.04	0.20	-0.13	-0.07	0.18	0.20	0.07	-0.09	-0.15	-0.14
-0.21	-0.17	0.04	0.20	-0.13	-0.07	0.18	0.20	0.07	-0.09	-0.15	-0.14
-0.21	-0.17	0.04	0.19	-0.12	-0.07	0.18	0.20	0.07	-0.09	-0.15	-0.14
-0.21	-0.17	0.04	0.19	-0.12	-0.07	0.18	0.21	0.07	-0.09	-0.16	-0.14
-0.21	-0.17	0.04	0.19	-0.12	-0.07	0.18	0.21	0.07	-0.08	-0.16	-0.14
-0.21	-0.17	0.04	0.19	-0.12	-0.07	0.18	0.22	0.07	-0.09	-0.16	-0.14
-0.21	-0.17	0.04	0.19	-0.12	-0.07	0.18	0.22	0.07	-0.10	-0.16	-0.14
-0.21	-0.17	0.04	0.19	-0.12	-0.07	0.19	0.22	0.07	-0.10	-0.16	-0.14
-0.21	-0.17	0.04	0.19	-0.12	-0.07	0.19	0.23	0.06	-0.10	-0.16	-0.14
-0.21	-0.17	0.04	0.19	-0.12	-0.07	0.20	0.24	0.06	-0.10	-0.16	-0.14
-0.21	-0.17	0.04	0.19	-0.12	-0.07	0.21	0.25	0.06	-0.10	-0.17	-0.14
-0.20	-0.17	0.04	0.18	-0.12	-0.06	0.21	0.25	0.06	-0.10	-0.17	-0.14
-0.20	-0.17	0.04	0.18	-0.12	-0.06	0.21	0.25	0.06	-0.10	-0.17	-0.14
-0.20	-0.17	0.04	0.18	-0.12	-0.06	0.21	0.26	0.06	-0.10	-0.17	-0.14
-0.20	-0.17	0.04	0.18	-0.12	-0.06	0.22	0.26	0.06	-0.10	-0.17	-0.14
-0.20	-0.17	0.04	0.18	-0.12	-0.06	0.22	0.27	0.06	-0.10	-0.17	-0.14
-0.20	-0.17	0.04	0.18	-0.12	-0.06	0.22	0.27	0.06	-0.10	-0.17	-0.14
-0.21	-0.17	0.04	0.19	-0.13	-0.06	0.23	0.27	0.06	-0.10	-0.17	-0.14
-0.21	-0.17	0.05	0.19	-0.13	-0.06	0.23	0.28	0.06	-0.11	-0.17	-0.14
-0.22	-0.16	0.05	0.19	-0.13	-0.06	0.23	0.28	0.06	-0.11	-0.17	-0.14
-0.22	-0.17	0.06	0.19	-0.14	-0.06	0.24	0.30	0.06	-0.11	-0.18	-0.14
-0.23	-0.17	0.06	0.20	-0.14	-0.06	0.27	0.31	0.06	-0.11	-0.18	-0.14
-0.23	-0.17	0.06	0.20	-0.14	-0.06	0.27	0.33	0.07	-0.11	-0.18	-0.14
-0.26	-0.20	0.06	0.23	-0.16	-0.07	0.28	0.35	0.09	-0.11	-0.18	-0.14
-0.28	-0.22	0.06	0.25	-0.17	-0.08	0.29	0.37	0.10	-0.11	-0.18	-0.14
-0.27	-0.21	0.06	0.24	-0.16	-0.07	0.29	0.37	0.11	-0.11	-0.19	-0.14
-0.27	-0.21	0.06	0.24	-0.17	-0.07	0.30	0.38	0.11	-0.11	-0.19	-0.15
-0.28	-0.21	0.07	0.24	-0.17	-0.07	0.31	0.39	0.11	-0.11	-0.19	-0.15
-0.28	-0.20	0.07	0.24	-0.17	-0.07	0.32	0.40	0.12	-0.11	-0.19	-0.16
-0.27	-0.21	0.07	0.24	-0.17	-0.07	0.32	0.41	0.12	-0.11	-0.19	-0.16
-0.27	-0.20	0.06	0.24	-0.17	-0.07	0.33	0.42	0.12	-0.10	-0.20	-0.17
-0.26	-0.20	0.06	0.23	-0.16	-0.07	0.33	0.42	0.12	-0.10	-0.21	-0.17
-0.26	-0.20	0.06	0.23	-0.16	-0.07	0.34	0.44	0.14	-0.10	-0.21	-0.17
-0.25	-0.20	0.05	0.22	-0.15	-0.07	0.36	0.47	0.15	-0.10	-0.20	-0.17
-0.24	-0.19	0.05	0.22	-0.14	-0.07	0.38	0.50	0.16	-0.10	-0.20	-0.17
-0.25	-0.20	0.06	0.22	-0.15	-0.07	0.39	0.51	0.16	-0.11	-0.21	-0.17
-0.28	-0.20	0.09	0.24	-0.18	-0.06	0.40	0.52	0.16	-0.13	-0.23	-0.19
-0.28	-0.19	0.09	0.24	-0.19	-0.05	0.41	0.54	0.16	-0.13	-0.23	-0.20
-0.28	-0.19	0.09	0.24	-0.19	-0.05	0.41	0.54	0.16	-0.12	-0.23	-0.20
-0.29	-0.19	0.10	0.24	-0.19	-0.04	0.42	0.56	0.17	-0.12	-0.23	-0.20
-0.28	-0.18	0.10	0.23	-0.19	-0.04	0.45	0.58	0.18	-0.11	-0.23	-0.20
-0.28	-0.18	0.10	0.23	-0.19	-0.04	0.46	0.59	0.18	-0.11	-0.23	-0.20
-0.29	-0.18	0.11	0.24	-0.20	-0.04	0.46	0.60	0.19	-0.11	-0.23	-0.20
-0.31	-0.18	0.13	0.24	-0.22	-0.03	0.47	0.63	0.20	-0.10	-0.23	-0.20
-0.32	-0.18	0.14	0.25	-0.23	-0.02	0.49	0.65	0.21	-0.10	-0.23	-0.19
-0.31	-0.18	0.13	0.24	-0.22	-0.03	0.49	0.65	0.21	-0.10	-0.23	-0.20
-0.30	-0.17	0.13	0.24	-0.22	-0.02	0.49	0.67	0.21	-0.10	-0.23	-0.20
-0.31	-0.17	0.13	0.24	-0.22	-0.02	0.51	0.67	0.23	-0.10	-0.23	-0.19
-0.30	-0.17	0.13	0.23	-0.21	-0.02	0.51	0.68	0.23	-0.09	-0.23	-0.19
-0.29	-0.17	0.12	0.23	-0.21	-0.02	0.51	0.68	0.22	-0.09	-0.22	-0.19
-0.29	-0.17	0.12	0.23	-0.21	-0.02	0.51	0.69	0.23	-0.09	-0.23	-0.19
-0.29	-0.17	0.12	0.23	-0.21	-0.02	0.51	0.69	0.23	-0.09	-0.23	-0.18
-0.30	-0.16	0.14	0.23	-0.22	-0.01	0.51	0.69	0.23	-0.09	-0.23	-0.18
-0.33	-0.17	0.17	0.25	-0.25	0.00	0.51	0.68	0.23	-0.09	-0.23	-0.19
-0.34	-0.16	0.18	0.25	-0.26	0.01	0.50	0.68	0.22	-0.09	-0.23	-0.18
-0.32	-0.15	0.17	0.23	-0.24	0.01	0.50	0.67	0.22	-0.09	-0.23	-0.18
-0.30	-0.14	0.17	0.22	-0.24	0.02	0.50	0.67	0.22	-0.09	-0.23	-0.18
-0.29	-0.12	0.17	0.21	-0.23	0.02	0.50	0.67	0.22	-0.07	-0.23	-0.18
-0.28	-0.11	0.17	0.20	-0.22	0.03	0.49	0.67	0.22	-0.06	-0.23	-0.18
-0.28	-0.10	0.18	0.19	-0.23	0.04	0.50	0.66	0.22	-0.06	-0.22	-0.17
-0.27	-0.08	0.20	0.18	-0.23	0.06	0.49	0.66	0.22	-0.05	-0.20	-0.18
-0.25	-0.07	0.18	0.16	-0.22	0.06	0.48	0.66	0.23	-0.04	-0.18	-0.17
-0.28	-0.10	0.18	0.19	-0.23	0.04	0.47	0.65	0.24	-0.03	-0.17	-0.16
-0.32	-0.14	0.17	0.23	-0.24	0.01	0.46	0.65	0.23	-0.02	-0.15	-0.15
-0.31	-0.15	0.17	0.23	-0.24	0.01	0.45	0.64	0.21	-0.01	-0.15	-0.15
-0.28	-0.12	0.16	0.20	-0.22	0.02	0.43	0.60	0.21	-0.01	-0.14	-0.14
-0.26	-0.11	0.15	0.18	-0.20	0.02	0.41	0.57	0.20	-0.01	-0.13	-0.12
-0.24	-0.09	0.15	0.16	-0.19	0.03	0.39	0.54	0.19	-0.01	-0.12	-0.12
-0.21	-0.07	0.14	0.14	-0.17	0.04	0.37	0.51	0.18	-0.01	-0.11	-0.11
-0.19	-0.06	0.13	0.12	-0.16	0.04	0.35	0.47	0.18	-0.01	-0.10	-0.10
-0.18	-0.05	0.13	0.11	-0.15	0.04	0.33	0.44	0.17	-0.01	-0.10	-0.09
-0.17	-0.04	0.12	0.10	-0.14	0.04	0.29	0.40	0.15	-0.01	-0.10	-0.09
-0.15	-0.03	0.12	0.09	-0.14	0.04	0.25	0.36	0.13	-0.01	-0.08	-0.08
-0.14	-0.02	0.12	0.08	-0.13	0.05	0.22	0.33	0.12	-0.01	-0.07	-0.08
-0.13	-0.02	0.11	0.07	-0.12	0.05	0.20	0.30	0.10	-0.01	-0.07	-0.07
-0.12	-0.01	0.11	0.07	-0.11	0.05	0.18	0.26	0.09	-0.00	-0.06	-0.06
-0.10	-0.01	0.09	0.06	-0.10	0.04	0.17	0.23	0.08	0.00	-0.05	-0.06
-0.08	-0.01	0.08	0.04	-0.08	0.04	0.15	0.21	0.07	0.00	-0.04	-0.05
-0.07	-0.00	0.07	0.04	-0.07	0.03	0.14	0.19	0.06	0.00	-0.04	-0.05
-0.06	0.00	0.06	0.03	-0.06	0.03	0.13	0.17	0.05	0.00	-0.04	-0.04
-0.05	0.01	0.06	0.02	-0.06	0.03	0.12	0.16	0.04	0.00	-0.04	-0.04
-0.05	0.01	0.06	0.02	-0.05	0.03	0.12	0.14	0.03	0.00	-0.04	-0.04
-0.05	-0.00	0.05	0.03	-0.05	0.02	0.11	0.12	0.02	-0.00	-0.04	-0.03
-0.05	-0.01	0.05	0.03	-0.05	0.02	0.10	0.10	0.02	-0.01	-0.04	-0.03
-0.06	-0.01	0.04	0.04	-0.05	0.01	0.09	0.09	0.01	-0.01	-0.03	-0.02
-0.06	-0.02	0.04	0.04	-0.05	0.01	0.08	0.08	0.01	-0.01	-0.04	-0.02
-0.06	-0.03	0.03	0.04	-0.04	0.00	0.07	0.07	0.01	-0.01	-0.04	-0.02
-0.10	-0.08	0.02	0.09	-0.06	-0.03	0.07	0.06	0.00	-0.01	-0.03	-0.02
-0.10	-0.09	0.01	0.10	-0.06	-0.04	0.06	0.05	0.00	-0.01	-0.03	-0.01
-0.08	-0.07	0.01	0.08	-0.04	-0.03	0.05	0.05	-0.00	-0.01	-0.03	-0.02
-0.07	-0.07	-0.00	0.07	-0.03	-0.04	0.05	0.04	-0.01	-0.02	-0.03	-0.03
-0.06	-0.07	-0.01	0.06	-0.02	-0.04	0.04	0.03	-0.01	-0.02	-0.03	-0.04
-0.04	-0.06	-0.02	0.05	-0.01	-0.04	0.04	0.03	-0.01	-0.02	-0.03	-0.04
-0.03	-0.05	-0.02	0.04	-0.01	-0.03	0.04	0.03	-0.02	-0.02	-0.03	-0.04
-0.03	-0.04	-0.01	0.03	-0.01	-0.03	0.03	0.03	-0.02	-0.02	-0.02	-0.04
-0.03	-0.04	-0.01	0.04	-0.01	-0.03	0.03	0.03	-0.02	-0.02	-0.02	-0.04
-0.04	-0.06	-0.01	0.05	-0.01	-0.04	0.03	0.03	-0.03	-0.02	-0.02	-0.04
-0.04	-0.06	-0.01	0.05	-0.01	-0.04	0.03	0.03	-0.02	-0.03	-0.03	-0.05
-0.04	-0.05	-0.01	0.05	-0.01	-0.04	0.03	0.03	-0.04	-0.06	-0.06	-0.08
-0.04	-0.06	-0.01	0.05	-0.01	-0.04	0.03	0.03	-0.05	-0.06	-0.07	-0.09
-0.04	-0.06	-0.01	0.05	-0.01	-0.04	0.03	0.03	-0.05	-0.05	-0.06	-0.08
-0.04	-0.06	-0.01	0.05	-0.01	-0.04	0.03	0.03	-0.05	-0.05	-0.07	-0.08
-0.04	-0.06	-0.01	0.05	-0.02	-0.03	0.03	0.03	-0.05	-0.05	-0.07	-0.08
-0.04	-0.05	-0.01	0.05	-0.02	-0.03	0.03	0.03	-0.05	-0.04	-0.07	-0.07
-0.04	-0.05	-0.01	0.04	-0.01	-0.03	0.02	0.03	-0.05	-0.04	-0.06	-0.07
-0.04	-0.05	-0.01	0.04	-0.01	-0.03	0.02	0.02	-0.06	-0.03	-0.06	-0.07
-0.04	-0.05	-0.01	0.04	-0.01	-0.03	0.02	0.02	-0.06	-0.03	-0.06	-0.07
-0.04	-0.05	-0.01	0.04	-0.01	-0.03	0.02	0.02	-0.06	-0.04	-0.06	-0.07
-0.04	-0.05	-0.01	0.04	-0.01	-0.03	0.02	0.02	-0.06	-0.05	-0.06	-0.07
-0.04	-0.05	-0.01	0.05	-0.02	-0.03	0.02	0.02	-0.06	-0.07	-0.06	-0.06
-0.04	-0.05	-0.01	0.04	-0.01	-0.03	0.02	0.02	-0.06	-0.08	-0.06	-0.06
-0.02	-0.04	-0.03	0.03	0.00	-0.04	0.02	0.02	-0.06	-0.07	-0.06	-0.06
-0.01	-0.04	-0.04	0.03	0.02	-0.04	0.02	0.02	-0.06	-0.07	-0.06	-0.06
-0.01	-0.04	-0.04	0.03	0.01	-0.04	0.02	0.02	-0.06	-0.08	-0.06	-0.06
-0.02	-0.04	-0.03	0.03	0.00	-0.04	0.03	0.02	-0.06	-0.07	-0.06	-0.05
-0.03	-0.04	-0.02	0.04	-0.00	-0.03	0.04	0.02	-0.06	-0.07	-0.05	-0.05
-0.04	-0.04	-0.01	0.04	-0.01	-0.03	0.04	0.02	-0.06	-0.07	-0.05	-0.05
-0.04	-0.04	-0.00	0.04	-0.02	-0.02	0.04	0.02	-0.06	-0.07	-0.05	-0.05
-0.05	-0.04	0.01	0.04	-0.03	-0.02	0.04	0.02	-0.05	-0.07	-0.05	-0.04
-0.05	-0.04	0.01	0.05	-0.03	-0.01	0.04	0.02	-0.06	-0.07	-0.05	-0.04
-0.05	-0.04	0.01	0.05	-0.03	-0.01	0.04	0.01	-0.05	-0.07	-0.05	-0.04
-0.05	-0.04	0.01	0.04	-0.03	-0.01	0.04	0.01	-0.05	-0.07	-0.04	-0.04
-0.05	-0.04	0.01	0.04	-0.03	-0.01	0.04	0.01	-0.05	-0.07	-0.04	-0.04
-0.05	-0.04	0.01	0.05	-0.03	-0.01	0.04	0.01	-0.05	-0.07	-0.04	-0.04
-0.05	-0.04	0.01	0.04	-0.03	-0.01	0.04	0.01	-0.05	-0.06	-0.04	-0.03
-0.04	-0.04	0.01	0.04	-0.03	-0.01	0.04	0.01	-0.05	-0.06	-0.04	-0.04
-0.04	-0.04	0.01	0.04	-0.03	-0.01	0.04	0.01	-0.04	-0.06	-0.04	-0.04
-0.04	-0.03	0.01	0.04	-0.03	-0.01	0.04	0.01	-0.04	-0.06	-0.05	-0.03
-0.04	-0.03	0.01	0.04	-0.03	-0.01	0.04	0.01	-0.05	-0.06	-0.07	-0.03
-0.04	-0.03	0.01	0.03	-0.02	-0.01	0.04	0.01	-0.04	-0.06	-0.08	-0.03
-0.03	-0.03	0.01	0.03	-0.02	-0.01	0.04	0.01	-0.04	-0.06	-0.07	-0.03
-0.03	-0.03	0.01	0.03	-0.02	-0.01	0.04	0.01	-0.04	-0.06	-0.06	-0.03
-0.03	-0.03	0.01	0.03	-0.02	-0.01	0.04	0.01	-0.04	-0.06	-0.06	-0.03
-0.03	-0.03	0.01	0.03	-0.02	-0.01	0.04	0.01	-0.04	-0.05	-0.05	-0.03
-0.03	-0.02	0.01	0.03	-0.02	-0.01	0.04	0.01	-0.04	-0.05	-0.04	-0.02
-0.02	-0.02	0.01	0.02	-0.01	-0.01	0.03	0.01	-0.03	-0.05	-0.03	-0.02
-0.03	-0.02	0.01	0.02	-0.01	-0.01	0.04	0.01	-0.03	-0.05	-0.03	-0.02
-0.03	-0.02	0.01	0.02	-0.02	-0.01	0.05	0.02	-0.03	-0.05	-0.03	-0.02
-0.02	-0.02	0.00	0.02	-0.01	-0.01	0.06	0.03	-0.03	-0.04	-0.02	-0.02
-0.01	-0.01	-0.01	0.01	0.00	-0.01	0.07	0.04	-0.02	-0.04	-0.03	-0.01
-0.01	-0.02	-0.01	0.01	0.00	-0.01	0.08	0.04	-0.02	-0.03	-0.02	-0.01
-0.01	-0.01	0.00	0.01	-0.01	-0.01	0.07	0.04	-0.02	-0.03	-0.02	-0.01
-0.01	-0.00	0.01	0.01	-0.01	0.00	0.07	0.04	-0.02	-0.02	-0.02	-0.01
-0.01	0.01	0.02	0.00	-0.01	0.01	0.08	0.04	-0.01	-0.01	-0.02	-0.01
-0.01	0.01	0.03	-0.00	-0.02	0.02	0.07	0.05	-0.01	-0.01	-0.02	-0.01
-0.01	0.02	0.03	-0.01	-0.02	0.03	0.07	0.06	-0.00	-0.00	-0.02	-0.01
0.01	0.03	0.03	-0.02	-0.01	0.03	0.07	0.06	0.00	0.00	-0.01	-0.01
0.00	0.03	0.03	-0.01	-0.01	0.03	0.07	0.06	0.00	0.00	-0.01	-0.01
-0.01	0.02	0.03	-0.01	-0.02	0.02	0.07	0.07	0.01	0.00	-0.02	-0.01
0.00	0.03	0.02	-0.02	-0.01	0.03	0.07	0.07	0.01	0.01	-0.01	-0.00
0.02	0.05	0.03	-0.04	-0.00	0.04	0.07	0.07	0.01	0.01	-0.01	0.00
0.02	0.06	0.04	-0.04	-0.01	0.05	0.07	0.07	0.01	0.01	-0.01	0.00
0.01	0.08	0.07	-0.05	-0.03	0.07	0.07	0.07	0.01	0.01	-0.01	0.00
0.00	0.09	0.09	-0.05	-0.05	0.09	0.06	0.07	0.01	0.02	-0.01	0.00
0.01	0.10	0.09	-0.05	-0.04	0.10	0.06	0.06	0.02	0.02	-0.01	0.01
0.02	0.10	0.08	-0.06	-0.03	0.09	0.06	0.06	0.02	0.03	0.00	0.01
0.02	0.09	0.07	-0.06	-0.03	0.08	0.06	0.06	0.02	0.03	0.01	0.01
0.02	0.08	0.06	-0.05	-0.02	0.07	0.06	0.06	0.02	0.03	0.01	0.01
0.02	0.07	0.05	-0.05	-0.02	0.06	0.05	0.06	0.03	0.04	0.02	0.01
0.02	0.07	0.05	-0.04	-0.01	0.06	0.04	0.05	0.03	0.04	0.02	0.02
0.01	0.06	0.04	-0.04	-0.01	0.05	0.03	0.04	0.03	0.04	0.03	0.02
0.01	0.05	0.04	-0.03	-0.01	0.04	0.01	0.03	0.03	0.04	0.04	0.03
0.00	0.04	0.04	-0.02	-0.02	0.04	0.00	0.02	0.02	0.03	0.03	0.03
0.02	0.06	0.03	-0.04	-0.01	0.04	-0.01	0.01	0.01	0.02	0.03	0.03
0.04	0.07	0.03	-0.05	0.00	0.05	-0.01	0.01	0.01	0.01	0.02	0.03
0.03	0.05	0.03	-0.04	0.00	0.04	-0.02	-0.00	-0.00	0.00	0.02	0.02
0.02	0.04	0.03	-0.03	-0.00	0.04	-0.03	-0.01	-0.01	-0.01	0.01	0.02
0.02	0.04	0.01	-0.03	0.01	0.03	-0.03	-0.01	-0.02	-0.01	0.01	0.02
0.03	0.03	0.00	-0.03	0.01	0.02	-0.04	-0.02	-0.03	-0.01	0.01	0.01
0.02	0.02	-0.00	-0.02	0.01	0.01	-0.04	-0.02	-0.03	-0.02	0.00	0.01
0.03	0.01	-0.01	-0.02	0.02	0.00	-0.04	-0.03	-0.04	-0.02	-0.00	0.01
0.03	0.01	-0.03	-0.02	0.03	-0.01	-0.04	-0.03	-0.04	-0.02	-0.01	0.01
0.03	0.00	-0.03	-0.02	0.03	-0.02	-0.04	-0.03	-0.04	-0.02	-0.01	0.00
0.04	0.00	-0.04	-0.02	0.04	-0.02	-0.04	-0.04	-0.04	-0.03	-0.01	-0.00
0.05	0.00	-0.05	-0.03	0.05	-0.02	-0.03	-0.03	-0.03	-0.03	-0.01	-0.01
0.06	-0.00	-0.06	-0.03	0.06	-0.03	-0.03	-0.03	-0.03	-0.03	-0.01	-0.01
0.06	-0.01	-0.06	-0.03	0.06	-0.03	-0.03	-0.03	-0.03	-0.04	-0.01	-0.01
0.06	-0.01	-0.06	-0.03	0.06	-0.04	-0.03	-0.03	-0.03	-0.04	-0.01	-0.01
0.06	-0.00	-0.07	-0.03	0.06	-0.03	-0.02	-0.03	-0.03	-0.04	-0.01	-0.01
0.05	-0.01	-0.07	-0.02	0.06	-0.04	-0.02	-0.03	-0.03	-0.04	-0.01	-0.02
0.04	-0.03	-0.07	-0.00	0.05	-0.05	-0.02	-0.03	-0.03	-0.04	-0.01	-0.02
0.02	-0.04	-0.07	0.01	0.04	-0.06	-0.01	-0.03	-0.03	-0.04	-0.01	-0.02
0.01	-0.06	-0.07	0.03	0.04	-0.06	-0.01	-0.03	-0.03	-0.03	-0.02	-0.03
-0.01	-0.08	-0.07	0.05	0.03	-0.07	-0.01	-0.03	-0.03	-0.04	-0.03	-0.02
-0.02	-0.09	-0.07	0.05	0.02	-0.07	-0.01	-0.03	-0.04	-0.04	-0.04	-0.03
-0.01	-0.08	-0.07	0.05	0.03	-0.07	-0.01	-0.03	-0.05	-0.04	-0.05	-0.05
-0.01	-0.08	-0.07	0.05	0.03	-0.07	-0.01	-0.03	-0.06	-0.05	-0.06	-0.05
-0.01	-0.08	-0.07	0.04	0.03	-0.07	-0.01	-0.03	-0.07	-0.05	-0.05	-0.06
-0.01	-0.07	-0.07	0.04	0.03	-0.07	-0.01	-0.03	-0.06	-0.04	-0.05	-0.05
-0.00	-0.07	-0.07	0.04	0.03	-0.07	-0.01	-0.02	-0.06	-0.04	-0.05	-0.05
0.00	-0.07	-0.07	0.04	0.04	-0.07	-0.01	-0.03	-0.06	-0.04	-0.05	-0.05
0.00	-0.07	-0.07	0.04	0.04	-0.07	-0.01	-0.03	-0.06	-0.04	-0.05	-0.05
0.00	-0.07	-0.07	0.03	0.04	-0.07	-0.01	-0.03	-0.06	-0.04	-0.05	-0.05
0.01	-0.07	-0.07	0.03	0.04	-0.07	-0.01	-0.03	-0.06	-0.04	-0.05	-0.05
0.01	-0.06	-0.07	0.03	0.04	-0.07	-0.01	-0.03	-0.06	-0.04	-0.05	-0.05
0.01	-0.06	-0.07	0.02	0.04	-0.06	-0.01	-0.03	-0.06	-0.04	-0.05	-0.04
0.01	-0.06	-0.07	0.03	0.04	-0.07	-0.01	-0.03	-0.06	-0.04	-0.05	-0.04
-0.01	-0.08	-0.07	0.05	0.03	-0.08	-0.00	-0.03	-0.06	-0.04	-0.05	-0.04
-0.03	-0.10	-0.07	0.07	0.02	-0.09	0.00	-0.03	-0.06	-0.04	-0.05	-0.04
-0.04	-0.12	-0.08	0.08	0.02	-0.10	0.00	-0.03	-0.06	-0.04	-0.05	-0.04
-0.04	-0.14	-0.09	0.09	0.02	-0.11	0.00	-0.03	-0.06	-0.04	-0.05	-0.04
-0.04	-0.13	-0.09	0.09	0.02	-0.11	0.00	-0.03	-0.06	-0.04	-0.04	-0.04
-0.04	-0.13	-0.08	0.09	0.02	-0.10	0.00	-0.03	-0.05	-0.04	-0.04	-0.04
-0.04	-0.12	-0.08	0.08	0.02	-0.10	0.00	-0.03	-0.05	-0.04	-0.04	-0.04
-0.04	-0.12	-0.07	0.08	0.01	-0.10	0.01	-0.03	-0.05	-0.04	-0.04	-0.04
-0.04	-0.11	-0.07	0.08	0.01	-0.09	0.01	-0.04	-0.05	-0.04	-0.04	-0.04
-0.04	-0.11	-0.07	0.08	0.01	-0.09	0.01	-0.04	-0.05	-0.04	-0.04	-0.04
-0.04	-0.11	-0.06	0.08	0.01	-0.08	0.01	-0.04	-0.05	-0.04	-0.04	-0.04
-0.04	-0.10	-0.06	0.07	0.01	-0.08	0.01	-0.04	-0.05	-0.04	-0.04	-0.04
-0.05	-0.10	-0.05	0.07	0.00	-0.08	0.00	-0.04	-0.04	-0.04	-0.04	-0.03
-0.05	-0.10	-0.05	0.07	0.00	-0.07	0.01	-0.02	-0.04	-0.04	-0.04	-0.04
-0.04	-0.10	-0.05	0.07	0.00	-0.07	0.01	-0.01	-0.04	-0.04	-0.04	-0.04
-0.05	-0.10	-0.05	0.07	-0.00	-0.07	0.02	-0.01	-0.04	-0.04	-0.04	-0.04
-0.05	-0.09	-0.04	0.07	-0.00	-0.07	0.03	0.00	-0.04	-0.05	-0.05	-0.04
-0.05	-0.09	-0.04	0.07	-0.00	-0.07	0.04	0.01	-0.05	-0.04	-0.04	-0.04
-0.05	-0.09	-0.04	0.07	-0.01	-0.06	0.05	0.02	-0.04	-0.03	-0.03	-0.03
-0.05	-0.09	-0.04	0.07	-0.01	-0.06	0.06	0.03	-0.02	-0.03	-0.03	-0.03
-0.05	-0.09	-0.04	0.07	-0.01	-0.06	0.06	0.05	-0.01	-0.03	-0.02	-0.03
-0.05	-0.08	-0.03	0.07	-0.01	-0.06	0.08	0.09	0.03	-0.03	-0.01	-0.02
-0.05	-0.08	-0.03	0.07	-0.01	-0.06	0.10	0.13	0.06	-0.00	0.00	-0.02
-0.05	-0.07	-0.03	0.06	-0.01	-0.05	0.12	0.18	0.09	0.04	0.00	-0.01
-0.03	-0.04	-0.01	0.03	-0.01	-0.03	0.12	0.23	0.14	0.07	0.01	-0.01
-0.01	-0.01	-0.01	0.01	0.00	-0.01	0.15	0.31	0.23	0.13	0.06	-0.01
0.02	0.04	0.02	-0.03	0.00	0.03	0.18	0.38	0.32	0.21	0.10	0.02
0.07	0.11	0.04	-0.09	0.02	0.08	0.15	0.35	0.39	0.29	0.16	0.07
0.14	0.21	0.07	-0.17	0.03	0.14	0.06	0.19	0.40	0.36	0.23	0.11
0.18	0.33	0.14	-0.26	0.02	0.24	-0.04	-0.06	0.35	0.41	0.29	0.16
0.21	0.45	0.24	-0.33	-0.01	0.35	-0.14	-0.30	0.32	0.45	0.35	0.23
0.26	0.55	0.29	-0.40	-0.02	0.42	-0.25	-0.52	0.27	0.48	0.41	0.29
0.31	0.59	0.29	-0.45	0.01	0.44	-0.38	-0.75	0.20	0.50	0.47	0.35
0.37	0.63	0.26	-0.50	0.06	0.44	-0.55	-1.06	0.07	0.50	0.53	0.42
0.46	0.69	0.23	-0.58	0.11	0.47	-0.81	-1.46	-0.11	0.49	0.60	0.52
0.55	0.75	0.21	-0.65	0.17	0.48	-1.11	-1.87	-0.32	0.46	0.69	0.60
0.64	0.82	0.18	-0.73	0.23	0.50	-1.38	-2.26	-0.54	0.41	0.72	0.68
0.75	0.88	0.13	-0.82	0.31	0.50	-1.65	-2.59	-0.75	0.39	0.75	0.75
0.88	0.92	0.04	-0.90	0.42	0.48	-1.92	-2.86	-0.91	0.39	0.83	0.81
1.01	0.96	-0.04	-0.99	0.53	0.46	-2.17	-3.06	-1.01	0.39	0.92	0.89
1.15	0.99	-0.17	-1.07	0.66	0.41	-2.33	-3.12	-1.06	0.42	1.00	0.97
1.32	0.99	-0.33	-1.15	0.83	0.33	-2.43	-3.08	-1.05	0.48	1.09	1.02
1.42	0.99	-0.43	-1.20	0.93	0.28	-2.43	-2.94	-0.96	0.57	1.18	1.07
1.46	0.97	-0.49	-1.22	0.97	0.24	-2.35	-2.73	-0.82	0.68	1.27	1.12
1.50	0.92	-0.58	-1.21	1.04	0.17	-2.25	-2.52	-0.71	0.74	1.35	1.16
1.52	0.88	-0.65	-1.20	1.08	0.11	-2.15	-2.34	-0.61	0.82	1.43	1.18
1.52	0.83	-0.69	-1.17	1.10	0.07	-2.01	-2.11	-0.50	0.81	1.40	1.15
1.43	0.74	-0.69	-1.09	1.06	0.02	-1.83	-1.85	-0.43	0.78	1.33	1.08
1.29	0.61	-0.68	-0.95	0.98	-0.03	-1.63	-1.61	-0.39	0.74	1.26	0.99
1.15	0.49	-0.66	-0.82	0.91	-0.09	-1.41	-1.39	-0.34	0.65	1.12	0.90
0.96	0.41	-0.56	-0.68	0.76	-0.07	-1.21	-1.18	-0.34	0.56	0.98	0.79
0.77	0.35	-0.41	-0.56	0.59	-0.03	-0.99	-0.98	-0.33	0.42	0.79	0.67
0.58	0.29	-0.29	-0.43	0.43	-0.00	-0.77	-0.79	-0.32	0.27	0.58	0.54
0.35	0.19	-0.16	-0.27	0.26	0.01	-0.56	-0.62	-0.32	0.06	0.32	0.37
0.12	0.10	-0.03	-0.11	0.08	0.03	-0.35	-0.46	-0.30	-0.16	0.03	0.15
0.03	0.01	-0.02	-0.02	0.02	-0.01	-0.18	-0.28	-0.23	-0.19	-0.03	0.04
-0.02	-0.04	-0.03	0.03	0.00	-0.03	-0.11	-0.14	-0.18	-0.17	-0.07	-0.01
-0.06	-0.08	-0.02	0.07	-0.02	-0.05	-0.07	-0.07	-0.13	-0.16	-0.12	-0.04
-0.09	-0.11	-0.02	0.10	-0.04	-0.07	-0.02	-0.02	-0.09	-0.15	-0.13	-0.07
-0.10	-0.12	-0.01	0.11	-0.04	-0.07	0.01	0.03	-0.06	-0.13	-0.14	-0.09
-0.12	-0.13	-0.01	0.12	-0.05	-0.07	0.05	0.07	-0.04	-0.12	-0.14	-0.11
-0.12	-0.14	-0.01	0.13	-0.06	-0.07	0.07	0.09	-0.02	-0.11	-0.14	-0.12
-0.13	-0.13	-0.01	0.13	-0.06	-0.07	0.07	0.09	-0.02	-0.10	-0.14	-0.13
-0.13	-0.14	-0.01	0.13	-0.06	-0.07	0.09	0.10	-0.01	-0.09	-0.14	-0.12
-0.13	-0.14	-0.01	0.13	-0.06	-0.07	0.10	0.10	-0.01	-0.09	-0.14	-0.12
-0.13	-0.13	-0.00	0.13	-0.07	-0.07	0.10	0.12	-0.00	-0.08	-0.14	-0.12
-0.15	-0.15	0.00	0.15	-0.08	-0.08	0.12	0.14	0.01	-0.07	-0.14	-0.12
-0.17	-0.17	0.00	0.17	-0.08	-0.08	0.14	0.17	0.01	-0.07	-0.14	-0.12
-0.17	-0.16	0.01	0.16	-0.09	-0.08	0.14	0.17	0.02	-0.07	-0.14	-0.12
-0.17	-0.16	0.01	0.17	-0.09	-0.07	0.14	0.17	0.03	-0.07	-0.14	-0.12
-0.17	-0.16	0.01	0.17	-0.09	-0.07	0.14	0.17	0.03	-0.07	-0.14	-0.12
-0.18	-0.16	0.02	0.17	-0.10	-0.07	0.14	0.17	0.03	-0.07	-0.14	-0.12
-0.17	-0.16	0.01	0.17	-0.09	-0.07	0.15	0.17	0.04	-0.07	-0.14	-0.12
-0.17	-0.16	0.01	0.16	-0.09	-0.07	0.14	0.17	0.04	-0.07	-0.14	-0.12
-0.17	-0.15	0.01	0.16	-0.09	-0.07	0.14	0.17	0.04	-0.07	-0.14	-0.12
-0.16	-0.15	0.01	0.16	-0.08	-0.07	0.15	0.17	0.05	-0.07	-0.14	-0.12
-0.16	-0.15	0.01	0.16	-0.08	-0.07	0.15	0.18	0.06	-0.07	-0.14	-0.12
-0.16	-0.15	0.00	0.16	-0.08	-0.08	0.15	0.18	0.06	-0.07	-0.14	-0.12
-0.15	-0.15	0.00	0.15	-0.08	-0.08	0.15	0.19	0.07	-0.07	-0.14	-0.12
-0.15	-0.15	0.00	0.15	-0.08	-0.08	0.15	0.19	0.07	-0.07	-0.14	-0.12
-0.15	-0.15	-0.00	0.15	-0.07	-0.08	0.15	0.19	0.07	-0.06	-0.13	-0.14
-0.15	-0.15	-0.01	0.15	-0.07	-0.08	0.15	0.19	0.07	-0.08	-0.15	-0.15
-0.14	-0.15	-0.01	0.15	-0.07	-0.08	0.15	0.19	0.07	-0.09	-0.16	-0.16
-0.14	-0.15	-0.01	0.14	-0.06	-0.08	0.15	0.19	0.07	-0.08	-0.16	-0.15
-0.14	-0.15	-0.01	0.14	-0.07	-0.08	0.15	0.19	0.07	-0.08	-0.16	-0.15
-0.14	-0.15	-0.01	0.15	-0.07	-0.08	0.15	0.19	0.07	-0.08	-0.16	-0.15
-0.14	-0.15	-0.01	0.15	-0.07	-0.08	0.15	0.20	0.07	-0.08	-0.16	-0.15
-0.14	-0.15	-0.00	0.15	-0.07	-0.07	0.15	0.20	0.07	-0.08	-0.16	-0.15
-0.14	-0.14	0.00	0.14	-0.07	-0.07	0.15	0.20	0.07	-0.08	-0.16	-0.15
-0.14	-0.14	0.00	0.14	-0.07	-0.07	0.15	0.20	0.07	-0.08	-0.16	-0.15
-0.15	-0.14	0.00	0.15	-0.08	-0.07	0.16	0.20	0.07	-0.08	-0.16	-0.15
-0.15	-0.14	0.01	0.15	-0.08	-0.07	0.16	0.20	0.07	-0.08	-0.16	-0.15
-0.15	-0.14	0.00	0.15	-0.08	-0.07	0.16	0.20	0.07	-0.08	-0.16	-0.15
-0.15	-0.14	0.01	0.15	-0.08	-0.07	0.17	0.20	0.07	-0.08	-0.16	-0.15
-0.15	-0.14	0.01	0.15	-0.08	-0.07	0.17	0.20	0.07	-0.08	-0.16	-0.15
-0.15	-0.14	0.01	0.15	-0.08	-0.07	0.17	0.21	0.07	-0.08	-0.16	-0.15
-0.15	-0.14	0.01	0.15	-0.08	-0.06	0.17	0.22	0.07	-0.08	-0.16	-0.15
-0.15	-0.14	0.01	0.14	-0.08	-0.06	0.17	0.23	0.07	-0.08	-0.17	-0.15
-0.15	-0.14	0.02	0.14	-0.08	-0.06	0.16	0.23	0.07	-0.08	-0.17	-0.15
-0.15	-0.14	0.02	0.14	-0.09	-0.06	0.17	0.23	0.07	-0.08	-0.17	-0.15
-0.15	-0.13	0.02	0.14	-0.09	-0.06	0.18	0.24	0.07	-0.08	-0.17	-0.15
-0.15	-0.13	0.02	0.14	-0.09	-0.06	0.18	0.25	0.07	-0.08	-0.17	-0.15
-0.15	-0.13	0.02	0.14	-0.08	-0.06	0.18	0.25	0.07	-0.08	-0.17	-0.15
-0.14	-0.13	0.01	0.14	-0.08	-0.06	0.19	0.26	0.07	-0.08	-0.17	-0.15
-0.14	-0.12	0.01	0.13	-0.08	-0.06	0.20	0.27	0.07	-0.08	-0.17	-0.15
-0.15	-0.12	0.03	0.14	-0.09	-0.05	0.20	0.27	0.06	-0.08	-0.17	-0.15
-0.16	-0.12	0.04	0.14	-0.10	-0.04	0.21	0.28	0.07	-0.08	-0.17	-0.15
-0.16	-0.12	0.04	0.14	-0.10	-0.04	0.22	0.30	0.09	-0.08	-0.17	-0.15
-0.17	-0.12	0.05	0.15	-0.11	-0.03	0.23	0.31	0.09	-0.08	-0.17	-0.15
-0.18	-0.12	0.07	0.15	-0.12	-0.03	0.23	0.32	0.10	-0.08	-0.17	-0.15
-0.19	-0.12	0.07	0.15	-0.13	-0.02	0.24	0.32	0.10	-0.08	-0.17	-0.15
-0.19	-0.11	0.08	0.15	-0.14	-0.01	0.25	0.33	0.09	-0.09	-0.17	-0.15
-0.22	-0.14	0.08	0.18	-0.15	-0.03	0.25	0.33	0.10	-0.09	-0.17	-0.15
-0.27	-0.19	0.08	0.23	-0.17	-0.05	0.26	0.34	0.12	-0.09	-0.17	-0.15
-0.28	-0.21	0.07	0.25	-0.18	-0.07	0.27	0.34	0.14	-0.09	-0.17	-0.15
-0.28	-0.20	0.07	0.24	-0.18	-0.06	0.28	0.36	0.14	-0.09	-0.18	-0.16
-0.27	-0.20	0.07	0.23	-0.17	-0.06	0.28	0.38	0.14	-0.09	-0.18	-0.17
-0.26	-0.19	0.07	0.23	-0.17	-0.06	0.28	0.39	0.15	-0.09	-0.19	-0.17
-0.25	-0.18	0.07	0.22	-0.16	-0.06	0.28	0.40	0.15	-0.09	-0.19	-0.18
-0.24	-0.18	0.07	0.21	-0.15	-0.06	0.30	0.42	0.15	-0.09	-0.20	-0.18
-0.24	-0.18	0.06	0.21	-0.15	-0.06	0.33	0.44	0.17	-0.09	-0.20	-0.18
-0.23	-0.17	0.06	0.20	-0.15	-0.06	0.34	0.45	0.17	-0.09	-0.20	-0.19
-0.23	-0.17	0.06	0.20	-0.14	-0.06	0.34	0.46	0.17	-0.09	-0.20	-0.19
-0.22	-0.17	0.05	0.20	-0.14	-0.06	0.36	0.47	0.18	-0.09	-0.20	-0.20
-0.23	-0.17	0.06	0.20	-0.14	-0.06	0.36	0.48	0.18	-0.09	-0.20	-0.20
-0.23	-0.17	0.06	0.20	-0.15	-0.05	0.37	0.49	0.18	-0.09	-0.20	-0.20
-0.24	-0.17	0.07	0.20	-0.16	-0.05	0.38	0.51	0.18	-0.09	-0.20	-0.20
-0.25	-0.17	0.09	0.21	-0.17	-0.04	0.40	0.53	0.19	-0.09	-0.20	-0.20
-0.26	-0.16	0.09	0.21	-0.17	-0.04	0.41	0.56	0.20	-0.09	-0.20	-0.20
-0.26	-0.16	0.10	0.21	-0.17	-0.03	0.43	0.57	0.21	-0.09	-0.20	-0.20
-0.26	-0.16	0.10	0.21	-0.18	-0.03	0.43	0.59	0.21	-0.09	-0.21	-0.21
-0.26	-0.16	0.10	0.21	-0.18	-0.03	0.44	0.59	0.22	-0.09	-0.23	-0.21
-0.27	-0.17	0.10	0.22	-0.18	-0.03	0.46	0.60	0.23	-0.09	-0.23	-0.22
-0.28	-0.18	0.10	0.23	-0.19	-0.04	0.47	0.62	0.23	-0.09	-0.23	-0.23
-0.28	-0.18	0.10	0.23	-0.19	-0.04	0.49	0.64	0.23	-0.09	-0.23	-0.23
-0.28	-0.18	0.10	0.23	-0.19	-0.04	0.49	0.64	0.23	-0.09	-0.24	-0.23
-0.28	-0.17	0.11	0.23	-0.20	-0.03	0.49	0.65	0.24	-0.09	-0.24	-0.24
-0.29	-0.17	0.12	0.23	-0.20	-0.02	0.50	0.66	0.24	-0.08	-0.24	-0.24
-0.28	-0.16	0.11	0.22	-0.19	-0.03	0.50	0.66	0.24	-0.08	-0.23	-0.25
-0.27	-0.15	0.12	0.21	-0.19	-0.02	0.50	0.67	0.24	-0.08	-0.23	-0.24
-0.29	-0.15	0.14	0.22	-0.21	-0.01	0.51	0.67	0.24	-0.08	-0.23	-0.24
-0.29	-0.15	0.14	0.22	-0.21	-0.00	0.50	0.68	0.25	-0.08	-0.23	-0.24
-0.29	-0.14	0.15	0.22	-0.22	0.00	0.51	0.68	0.25	-0.07	-0.22	-0.23
-0.30	-0.14	0.16	0.22	-0.23	0.01	0.53	0.69	0.25	-0.07	-0.22	-0.23
-0.29	-0.14	0.15	0.21	-0.22	0.01	0.52	0.69	0.26	-0.07	-0.21	-0.23
-0.29	-0.13	0.15	0.21	-0.22	0.01	0.52	0.69	0.26	-0.07	-0.21	-0.22
-0.28	-0.13	0.15	0.21	-0.22	0.01	0.51	0.69	0.26	-0.07	-0.21	-0.22
-0.28	-0.13	0.15	0.20	-0.21	0.01	0.51	0.68	0.26	-0.06	-0.21	-0.22
-0.27	-0.12	0.15	0.20	-0.21	0.01	0.50	0.67	0.26	-0.06	-0.20	-0.21
-0.27	-0.12	0.14	0.19	-0.20	0.01	0.50	0.66	0.27	-0.06	-0.20	-0.20
-0.27	-0.12	0.14	0.19	-0.20	0.01	0.50	0.65	0.27	-0.05	-0.20	-0.20
-0.26	-0.12	0.15	0.19	-0.20	0.01	0.49	0.64	0.27	-0.05	-0.19	-0.19
-0.26	-0.11	0.14	0.18	-0.20	0.01	0.47	0.63	0.27	-0.04	-0.18	-0.19
-0.25	-0.11	0.14	0.18	-0.20	0.01	0.46	0.62	0.27	-0.03	-0.17	-0.18
-0.25	-0.11	0.14	0.18	-0.20	0.01	0.45	0.61	0.27	-0.03	-0.17	-0.17
-0.23	-0.10	0.14	0.17	-0.18	0.02	0.44	0.59	0.27	-0.02	-0.16	-0.16
-0.22	-0.09	0.14	0.16	-0.18	0.02	0.42	0.58	0.25	-0.01	-0.15	-0.15
-0.21	-0.08	0.13	0.14	-0.17	0.03	0.40	0.55	0.24	-0.01	-0.14	-0.15
-0.20	-0.07	0.13	0.13	-0.16	0.03	0.37	0.51	0.23	0.00	-0.13	-0.14
-0.19	-0.06	0.13	0.12	-0.16	0.04	0.34	0.47	0.21	0.01	-0.12	-0.13
-0.17	-0.04	0.13	0.11	-0.15	0.04	0.31	0.45	0.20	0.01	-0.11	-0.12
-0.15	-0.03	0.12	0.09	-0.14	0.04	0.29	0.42	0.18	0.02	-0.10	-0.11
-0.13	-0.02	0.11	0.07	-0.12	0.05	0.27	0.39	0.17	0.02	-0.10	-0.11
-0.10	-0.00	0.10	0.05	-0.10	0.05	0.25	0.34	0.16	0.02	-0.09	-0.10
-0.08	0.01	0.09	0.04	-0.09	0.05	0.22	0.30	0.14	0.02	-0.08	-0.09
-0.07	0.01	0.08	0.03	-0.08	0.04	0.19	0.28	0.13	0.02	-0.07	-0.08
-0.07	0.00	0.07	0.03	-0.07	0.04	0.17	0.26	0.12	0.01	-0.06	-0.07
-0.06	0.00	0.06	0.03	-0.06	0.03	0.15	0.23	0.11	0.02	-0.06	-0.07
-0.05	-0.00	0.05	0.03	-0.05	0.03	0.14	0.20	0.10	0.01	-0.05	-0.07
-0.06	-0.01	0.05	0.03	-0.05	0.02	0.12	0.17	0.10	0.01	-0.04	-0.07
-0.06	-0.01	0.05	0.03	-0.05	0.02	0.11	0.16	0.09	0.01	-0.04	-0.07
-0.06	-0.01	0.04	0.03	-0.05	0.02	0.10	0.14	0.08	0.01	-0.03	-0.07
-0.07	-0.00	0.06	0.04	-0.07	0.03	0.09	0.13	0.07	0.01	-0.03	-0.06
-0.07	0.01	0.08	0.03	-0.07	0.05	0.08	0.11	0.07	0.01	-0.03	-0.06
-0.04	0.03	0.06	0.01	-0.05	0.04	0.07	0.10	0.06	0.01	-0.03	-0.06
-0.03	0.01	0.04	0.01	-0.04	0.03	0.07	0.08	0.06	0.01	-0.03	-0.06
-0.03	0.00	0.03	0.01	-0.03	0.02	0.06	0.07	0.05	0.00	-0.03	-0.06
-0.01	-0.00	0.01	0.01	-0.01	0.00	0.06	0.07	0.05	0.00	-0.03	-0.06
-0.01	-0.01	0.00	0.01	-0.01	-0.01	0.05	0.06	0.04	-0.00	-0.03	-0.06
-0.04	-0.03	0.01	0.03	-0.02	-0.01	0.04	0.05	0.04	-0.01	-0.03	-0.06
-0.05	-0.03	0.01	0.04	-0.03	-0.01	0.04	0.04	0.03	-0.01	-0.03	-0.06
-0.06	-0.04	0.02	0.05	-0.04	-0.01	0.04	0.03	0.03	-0.00	-0.03	-0.06
-0.07	-0.04	0.03	0.06	-0.05	-0.01	0.04	0.03	0.03	-0.01	-0.03	-0.06
-0.07	-0.03	0.03	0.05	-0.05	0.00	0.04	0.03	0.02	-0.01	-0.03	-0.06
-0.07	-0.03	0.04	0.05	-0.06	0.01	0.04	0.03	0.02	-0.01	-0.03	-0.06
-0.07	-0.03	0.04	0.05	-0.06	0.01	0.04	0.03	0.02	-0.01	-0.03	-0.06
-0.06	-0.02	0.04	0.04	-0.05	0.01	0.04	0.03	0.02	-0.01	-0.02	-0.06
-0.05	-0.01	0.04	0.03	-0.05	0.01	0.04	0.02	0.02	-0.02	-0.02	-0.06
-0.05	-0.01	0.04	0.03	-0.04	0.02	0.04	0.02	0.01	-0.01	-0.02	-0.06
-0.04	-0.01	0.04	0.02	-0.04	0.01	0.04	0.02	0.01	-0.01	-0.02	-0.06
-0.06	-0.02	0.04	0.04	-0.05	0.01	0.04	0.02	0.01	-0.02	-0.02	-0.06
-0.08	-0.05	0.03	0.06	-0.06	-0.01	0.04	0.02	0.01	-0.02	-0.02	-0.06
-0.08	-0.05	0.03	0.06	-0.05	-0.01	0.04	0.02	0.01	-0.02	-0.02	-0.06
-0.07	-0.04	0.03	0.05	-0.05	-0.00	0.04	0.01	0.01	-0.02	-0.02	-0.06
-0.07	-0.04	0.03	0.05	-0.05	-0.00	0.04	0.01	0.01	-0.02	-0.02	-0.06
-0.06	-0.03	0.03	0.04	-0.04	-0.00	0.03	0.01	0.01	-0.02	-0.02	-0.06
-0.05	-0.03	0.03	0.04	-0.04	-0.00	0.03	0.01	0.00	-0.02	-0.02	-0.06
-0.05	-0.02	0.02	0.03	-0.03	0.00	0.03	0.01	-0.00	-0.02	-0.02	-0.06
-0.04	-0.02	0.02	0.03	-0.03	0.00	0.03	0.01	0.00	-0.02	-0.02	-0.06
-0.04	-0.01	0.02	0.03	-0.03	0.00	0.03	0.01	0.00	-0.02	-0.02	-0.06
-0.03	-0.01	0.02	0.02	-0.02	0.00	0.03	0.01	-0.00	-0.02	-0.02	-0.06
-0.02	-0.01	0.01	0.01	-0.02	0.00	0.03	0.01	-0.01	-0.02	-0.03	-0.06
-0.02	-0.00	0.01	0.01	-0.02	0.01	0.03	0.01	-0.00	-0.02	-0.03	-0.06
-0.01	0.00	0.02	0.01	-0.02	0.01	0.03	0.01	-0.01	-0.03	-0.03	-0.06
-0.02	0.01	0.03	0.01	-0.02	0.01	0.03	0.01	-0.01	-0.03	-0.03	-0.06
-0.04	-0.01	0.03	0.03	-0.04	0.01	0.03	0.01	-0.01	-0.03	-0.03	-0.06
-0.07	-0.03	0.04	0.05	-0.05	0.01	0.03	0.01	-0.01	-0.03	-0.04	-0.06
-0.08	-0.03	0.05	0.05	-0.06	0.01	0.03	0.01	-0.01	-0.03	-0.04	-0.06
-0.07	-0.02	0.06	0.04	-0.07	0.02	0.03	0.01	-0.02	-0.03	-0.04	-0.06
-0.07	-0.01	0.07	0.04	-0.07	0.03	0.03	0.01	-0.02	-0.03	-0.04	-0.06
-0.08	-0.00	0.07	0.04	-0.08	0.04	0.03	0.01	-0.02	-0.03	-0.05	-0.06
-0.06	0.01	0.07	0.03	-0.07	0.04	0.03	0.01	-0.02	-0.03	-0.05	-0.06
-0.05	0.01	0.06	0.02	-0.06	0.04	0.03	0.01	-0.01	-0.03	-0.05	-0.05
-0.06	0.01	0.06	0.03	-0.06	0.03	0.03	0.02	-0.01	-0.02	-0.05	-0.05
-0.05	0.01	0.06	0.02	-0.05	0.03	0.03	0.01	-0.01	-0.02	-0.05	-0.05
-0.05	0.00	0.05	0.02	-0.05	0.02	0.03	0.01	-0.01	-0.02	-0.05	-0.05
-0.04	0.00	0.04	0.02	-0.04	0.02	0.03	0.02	-0.01	-0.02	-0.05	-0.05
-0.04	-0.00	0.04	0.02	-0.04	0.02	0.03	0.02	-0.01	-0.02	-0.05	-0.04
-0.04	-0.01	0.03	0.02	-0.04	0.01	0.03	0.02	-0.01	-0.02	-0.05	-0.04
-0.04	-0.01	0.03	0.02	-0.03	0.01	0.03	0.03	-0.01	-0.02	-0.05	-0.04
-0.04	-0.01	0.03	0.02	-0.04	0.01	0.03	0.03	-0.01	-0.02	-0.05	-0.04
-0.04	-0.01	0.03	0.02	-0.03	0.01	0.03	0.02	-0.01	-0.02	-0.05	-0.04
-0.04	-0.01	0.02	0.02	-0.03	0.01	0.04	0.03	-0.01	-0.01	-0.05	-0.04
-0.04	-0.01	0.03	0.03	-0.03	0.01	0.04	0.03	-0.01	-0.01	-0.05	-0.04
-0.04	-0.01	0.03	0.03	-0.03	0.01	0.04	0.03	-0.01	-0.01	-0.05	-0.04
-0.04	-0.02	0.02	0.03	-0.03	0.00	0.04	0.03	-0.01	-0.01	-0.05	-0.04
-0.04	-0.02	0.02	0.03	-0.03	0.00	0.04	0.04	-0.01	-0.02	-0.05	-0.04
-0.04	-0.02	0.02	0.03	-0.03	-0.00	0.05	0.03	-0.00	-0.01	-0.05	-0.03
-0.04	-0.03	0.01	0.03	-0.03	-0.01	0.04	0.04	0.00	-0.01	-0.05	-0.03
-0.04	-0.03	0.01	0.03	-0.03	-0.01	0.04	0.04	0.00	-0.01	-0.05	-0.03
-0.03	-0.01	0.01	0.02	-0.02	0.00	0.05	0.04	0.00	-0.01	-0.05	-0.03
-0.03	-0.00	0.02	0.01	-0.03	0.01	0.05	0.04	0.00	-0.01	-0.05	-0.03
-0.03	0.01	0.04	0.01	-0.03	0.02	0.05	0.04	-0.00	-0.01	-0.05	-0.02
-0.02	0.02	0.04	0.00	-0.03	0.03	0.05	0.04	0.00	-0.01	-0.05	-0.03
-0.03	0.03	0.05	0.00	-0.04	0.04	0.05	0.04	0.01	-0.01	-0.05	-0.03
-0.03	0.04	0.06	-0.01	-0.04	0.05	0.05	0.04	0.01	-0.00	-0.04	-0.02
-0.02	0.05	0.07	-0.01	-0.05	0.06	0.06	0.06	0.02	0.01	-0.03	-0.01
-0.03	0.05	0.08	-0.01	-0.05	0.07	0.06	0.07	0.02	0.01	-0.02	-0.01
-0.03	0.06	0.09	-0.01	-0.06	0.07	0.07	0.08	0.03	0.02	-0.01	-0.00
-0.02	0.06	0.08	-0.02	-0.05	0.07	0.07	0.08	0.03	0.03	-0.01	0.00
-0.01	0.07	0.08	-0.03	-0.05	0.07	0.07	0.08	0.03	0.03	0.00	0.00
-0.01	0.06	0.08	-0.02	-0.05	0.07	0.08	0.09	0.04	0.04	0.01	0.01
0.00	0.08	0.07	-0.04	-0.04	0.08	0.08	0.08	0.05	0.04	0.02	0.01
0.02	0.10	0.07	-0.06	-0.03	0.09	0.07	0.08	0.04	0.03	0.02	0.02
0.01	0.09	0.07	-0.05	-0.03	0.08	0.06	0.07	0.04	0.03	0.03	0.03
0.01	0.09	0.07	-0.05	-0.03	0.08	0.05	0.07	0.04	0.03	0.03	0.03
0.01	0.09	0.07	-0.05	-0.03	0.08	0.04	0.07	0.04	0.03	0.03	0.03
0.01	0.08	0.07	-0.05	-0.03	0.07	0.04	0.06	0.03	0.03	0.03	0.03
0.01	0.08	0.07	-0.05	-0.03	0.07	0.03	0.06	0.03	0.02	0.03	0.03
0.01	0.07	0.07	-0.04	-0.03	0.07	0.02	0.06	0.03	0.02	0.03	0.03
0.01	0.07	0.06	-0.04	-0.03	0.07	0.01	0.05	0.03	0.02	0.03	0.03
0.02	0.10	0.08	-0.06	-0.03	0.09	-0.00	0.04	0.02	0.02	0.02	0.03
0.02	0.10	0.08	-0.06	-0.03	0.09	-0.01	0.03	0.02	0.01	0.02	0.03
0.02	0.09	0.07	-0.05	-0.02	0.08	-0.02	0.02	0.01	0.01	0.02	0.03
0.03	0.08	0.06	-0.05	-0.01	0.07	-0.03	0.01	0.01	0.01	0.01	0.03
0.02	0.07	0.05	-0.04	-0.01	0.06	-0.04	-0.00	0.01	0.01	0.01	0.03
0.02	0.06	0.04	-0.04	-0.01	0.05	-0.05	-0.01	-0.00	0.01	0.01	0.03
0.03	0.05	0.02	-0.04	0.00	0.04	-0.05	-0.02	-0.01	0.00	0.01	0.03
0.04	0.05	0.01	-0.04	0.01	0.03	-0.06	-0.03	-0.01	0.00	0.01	0.02
0.04	0.05	0.01	-0.05	0.02	0.03	-0.06	-0.03	-0.02	0.00	0.01	0.02
0.06	0.05	-0.01	-0.05	0.03	0.02	-0.06	-0.03	-0.03	-0.00	0.00	0.02
0.06	0.05	-0.02	-0.06	0.04	0.01	-0.06	-0.04	-0.03	-0.01	0.00	0.02
0.07	0.04	-0.02	-0.06	0.04	0.01	-0.06	-0.05	-0.04	-0.01	-0.00	0.02
0.08	0.04	-0.03	-0.06	0.06	0.01	-0.07	-0.05	-0.04	-0.02	-0.01	0.02
0.09	0.04	-0.04	-0.07	0.07	0.00	-0.09	-0.06	-0.04	-0.02	-0.01	0.01
0.09	0.04	-0.05	-0.06	0.07	-0.01	-0.08	-0.05	-0.04	-0.02	-0.01	0.01
0.09	0.03	-0.06	-0.06	0.07	-0.02	-0.07	-0.05	-0.04	-0.03	-0.01	0.01
0.09	0.02	-0.07	-0.06	0.08	-0.02	-0.07	-0.04	-0.04	-0.03	-0.01	0.01
0.08	0.01	-0.07	-0.05	0.08	-0.03	-0.06	-0.04	-0.04	-0.03	-0.01	0.01
0.07	0.01	-0.07	-0.04	0.07	-0.03	-0.06	-0.04	-0.04	-0.03	-0.01	0.01
0.07	-0.00	-0.07	-0.03	0.07	-0.04	-0.05	-0.03	-0.04	-0.03	-0.01	0.01
0.06	-0.01	-0.07	-0.03	0.07	-0.04	-0.04	-0.03	-0.04	-0.03	-0.02	-0.00
0.05	-0.02	-0.07	-0.01	0.06	-0.04	-0.04	-0.03	-0.04	-0.03	-0.01	-0.01
0.04	-0.03	-0.07	-0.00	0.05	-0.05	-0.04	-0.02	-0.04	-0.03	-0.02	-0.01
0.03	-0.04	-0.07	0.01	0.05	-0.06	-0.04	-0.03	-0.04	-0.03	-0.02	-0.02
0.02	-0.05	-0.07	0.01	0.05	-0.06	-0.03	-0.03	-0.04	-0.03	-0.02	-0.03
0.01	-0.06	-0.07	0.02	0.04	-0.06	-0.03	-0.02	-0.04	-0.03	-0.02	-0.03
0.00	-0.07	-0.07	0.03	0.04	-0.07	-0.03	-0.02	-0.04	-0.03	-0.03	-0.03
-0.01	-0.08	-0.07	0.04	0.03	-0.07	-0.03	-0.02	-0.04	-0.03	-0.03	-0.03
-0.01	-0.09	-0.07	0.05	0.03	-0.08	-0.03	-0.02	-0.04	-0.03	-0.03	-0.03
-0.02	-0.09	-0.07	0.06	0.03	-0.08	-0.02	-0.02	-0.04	-0.03	-0.03	-0.03
-0.02	-0.09	-0.07	0.05	0.03	-0.08	-0.02	-0.02	-0.04	-0.03	-0.03	-0.03
-0.02	-0.09	-0.08	0.06	0.03	-0.08	-0.02	-0.01	-0.04	-0.03	-0.03	-0.03
-0.02	-0.10	-0.07	0.06	0.03	-0.09	-0.01	-0.01	-0.04	-0.03	-0.03	-0.03
-0.02	-0.10	-0.07	0.06	0.03	-0.09	-0.01	-0.01	-0.04	-0.03	-0.04	-0.03
-0.02	-0.10	-0.07	0.06	0.03	-0.09	-0.01	-0.01	-0.04	-0.03	-0.04	-0.03
-0.03	-0.10	-0.07	0.06	0.02	-0.09	-0.01	-0.01	-0.04	-0.03	-0.04	-0.03
-0.02	-0.10	-0.07	0.06	0.03	-0.09	-0.01	-0.01	-0.04	-0.02	-0.03	-0.03
-0.02	-0.10	-0.07	0.06	0.03	-0.09	-0.01	-0.01	-0.04	-0.02	-0.03	-0.03
-0.02	-0.10	-0.07	0.06	0.03	-0.09	-0.01	-0.01	-0.04	-0.02	-0.03	-0.03
-0.02	-0.10	-0.07	0.06	0.03	-0.09	-0.00	-0.01	-0.04	-0.02	-0.03	-0.03
-0.02	-0.10	-0.07	0.06	0.03	-0.09	0.00	-0.01	-0.04	-0.02	-0.03	-0.03
-0.02	-0.10	-0.07	0.06	0.03	-0.09	0.00	-0.01	-0.04	-0.01	-0.03	-0.02
-0.02	-0.09	-0.07	0.06	0.03	-0.09	0.01	-0.01	-0.04	-0.01	-0.03	-0.03
-0.01	-0.09	-0.07	0.05	0.03	-0.08	0.01	-0.01	-0.04	-0.01	-0.03	-0.03
-0.02	-0.09	-0.07	0.06	0.03	-0.08	0.01	-0.00	-0.04	-0.01	-0.03	-0.03
-0.02	-0.09	-0.07	0.06	0.03	-0.08	0.01	0.00	-0.03	-0.01	-0.03	-0.03
-0.02	-0.09	-0.07	0.06	0.02	-0.08	0.01	0.00	-0.04	-0.01	-0.03	-0.03
-0.03	-0.09	-0.07	0.06	0.02	-0.08	0.01	0.00	-0.03	-0.01	-0.03	-0.03
-0.03	-0.09	-0.07	0.06	0.02	-0.08	0.01	0.00	-0.03	-0.01	-0.03	-0.03
-0.03	-0.09	-0.06	0.06	0.02	-0.07	0.01	0.01	-0.03	-0.01	-0.03	-0.03
-0.02	-0.08	-0.06	0.05	0.02	-0.07	0.02	0.01	-0.03	-0.01	-0.03	-0.03
-0.02	-0.08	-0.06	0.05	0.02	-0.07	0.01	0.02	-0.03	-0.00	-0.03	-0.03
-0.02	-0.07	-0.06	0.05	0.02	-0.07	0.02	0.02	-0.03	0.00	-0.03	-0.03
-0.02	-0.07	-0.06	0.05	0.02	-0.07	0.02	0.03	-0.02	0.00	-0.03	-0.03
-0.02	-0.07	-0.05	0.05	0.01	-0.06	0.02	0.04	-0.01	0.00	-0.03	-0.02
-0.02	-0.07	-0.05	0.04	0.02	-0.06	0.02	0.04	-0.00	0.00	-0.03	-0.02
-0.02	-0.07	-0.05	0.04	0.02	-0.06	0.03	0.05	0.00	0.01	-0.03	-0.01
-0.02	-0.07	-0.04	0.04	0.01	-0.06	0.05	0.07	0.01	0.00	-0.03	-0.01
-0.01	-0.06	-0.04	0.04	0.01	-0.05	0.07	0.11	0.04	0.01	-0.03	-0.01
-0.01	-0.05	-0.04	0.03	0.01	-0.05	0.09	0.16	0.07	0.04	-0.01	0.00
-0.02	-0.06	-0.04	0.04	0.01	-0.05	0.10	0.20	0.12	0.07	0.01	-0.00
-0.01	-0.03	-0.03	0.02	0.01	-0.03	0.13	0.27	0.18	0.11	0.03	0.01
0.01	0.02	0.01	-0.02	-0.00	0.02	0.13	0.30	0.24	0.15	0.06	0.02
0.03	0.07	0.05	-0.05	-0.01	0.06	0.10	0.24	0.28	0.20	0.09	0.03
0.06	0.16	0.10	-0.11	-0.02	0.12	0.08	0.22	0.32	0.27	0.15	0.08
0.09	0.23	0.13	-0.16	-0.02	0.18	-0.01	0.01	0.28	0.33	0.23	0.14
0.12	0.32	0.20	-0.22	-0.04	0.26	-0.13	-0.30	0.20	0.34	0.26	0.19
0.15	0.44	0.29	-0.30	-0.07	0.37	-0.24	-0.57	0.14	0.33	0.29	0.24
0.18	0.52	0.34	-0.35	-0.07	0.43	-0.34	-0.80	0.07	0.34	0.34	0.29
0.23	0.56	0.32	-0.40	-0.04	0.44	-0.50	-1.05	-0.05	0.33	0.38	0.35
0.31	0.62	0.32	-0.46	-0.01	0.47	-0.73	-1.39	-0.21	0.33	0.43	0.41
0.40	0.68	0.28	-0.54	0.06	0.48	-1.00	-1.78	-0.39	0.32	0.49	0.49
0.51	0.73	0.22	-0.62	0.14	0.48	-1.28	-2.18	-0.59	0.30	0.55	0.57
0.64	0.81	0.17	-0.72	0.23	0.49	-1.56	-2.55	-0.80	0.29	0.60	0.64
0.74	0.84	0.10	-0.79	0.32	0.47	-1.83	-2.83	-0.97	0.28	0.65	0.69
0.86	0.87	0.01	-0.87	0.43	0.44	-2.10	-3.06	-1.07	0.25	0.74	0.76
1.02	0.94	-0.09	-0.98	0.56	0.42	-2.33	-3.19	-1.14	0.27	0.84	0.84
1.20	0.98	-0.23	-1.09	0.71	0.38	-2.47	-3.19	-1.15	0.35	0.95	0.92
1.35	0.95	-0.40	-1.16	0.88	0.28	-2.50	-3.10	-1.09	0.45	1.05	0.96
1.43	0.94	-0.49	-1.19	0.96	0.23	-2.44	-2.93	-0.97	0.54	1.13	1.01
1.48	0.92	-0.55	-1.20	1.02	0.18	-2.38	-2.72	-0.84	0.64	1.22	1.05
1.53	0.90	-0.63	-1.22	1.08	0.14	-2.30	-2.51	-0.71	0.73	1.32	1.10
1.57	0.88	-0.70	-1.22	1.13	0.09	-2.18	-2.31	-0.60	0.82	1.40	1.12
1.55	0.81	-0.75	-1.18	1.15	0.03	-2.04	-2.08	-0.49	0.86	1.43	1.07
1.47	0.70	-0.77	-1.08	1.12	-0.04	-1.85	-1.82	-0.42	0.80	1.38	1.03
1.33	0.57	-0.76	-0.95	1.05	-0.10	-1.64	-1.57	-0.36	0.74	1.28	0.96
1.17	0.47	-0.69	-0.82	0.93	-0.11	-1.44	-1.37	-0.33	0.65	1.14	0.86
0.98	0.42	-0.56	-0.70	0.77	-0.07	-1.23	-1.19	-0.33	0.53	0.98	0.76
0.78	0.36	-0.41	-0.57	0.60	-0.03	-1.01	-0.97	-0.33	0.42	0.81	0.65
0.58	0.28	-0.30	-0.43	0.44	-0.01	-0.81	-0.78	-0.32	0.25	0.59	0.52
0.34	0.18	-0.16	-0.26	0.25	0.01	-0.59	-0.62	-0.32	0.03	0.31	0.34
0.14	0.07	-0.07	-0.11	0.10	0.00	-0.38	-0.44	-0.29	-0.16	0.04	0.17
0.03	-0.01	-0.04	-0.01	0.04	-0.02	-0.20	-0.26	-0.22	-0.22	-0.10	0.05
-0.03	-0.04	-0.01	0.03	-0.01	-0.02	-0.10	-0.13	-0.17	-0.19	-0.12	0.01
-0.06	-0.07	-0.01	0.06	-0.03	-0.04	-0.05	-0.07	-0.12	-0.17	-0.12	-0.03
-0.08	-0.10	-0.01	0.09	-0.03	-0.06	0.00	-0.01	-0.08	-0.16	-0.12	-0.05
-0.09	-0.10	-0.01	0.10	-0.04	-0.06	0.04	0.04	-0.05	-0.15	-0.12	-0.07
-0.09	-0.11	-0.02	0.10	-0.04	-0.06	0.05	0.07	-0.04	-0.14	-0.12	-0.08
-0.11	-0.13	-0.02	0.12	-0.04	-0.07	0.09	0.10	-0.04	-0.13	-0.12	-0.09
-0.12	-0.14	-0.02	0.13	-0.05	-0.08	0.10	0.12	-0.02	-0.12	-0.12	-0.11
-0.13	-0.16	-0.03	0.15	-0.05	-0.09	0.10	0.12	-0.01	-0.11	-0.12	-0.11
-0.14	-0.17	-0.02	0.15	-0.06	-0.09	0.11	0.13	-0.00	-0.10	-0.12	-0.10
-0.14	-0.16	-0.02	0.15	-0.06	-0.09	0.12	0.15	0.01	-0.10	-0.12	-0.10
-0.14	-0.16	-0.02	0.15	-0.06	-0.09	0.12	0.15	0.01	-0.10	-0.12	-0.10
-0.14	-0.16	-0.02	0.15	-0.06	-0.09	0.13	0.15	0.02	-0.10	-0.12	-0.10
-0.14	-0.15	-0.02	0.14	-0.06	-0.09	0.13	0.16	0.02	-0.10	-0.12	-0.10
-0.13	-0.15	-0.02	0.14	-0.06	-0.09	0.14	0.17	0.03	-0.10	-0.12	-0.10
-0.13	-0.15	-0.02	0.14	-0.06	-0.08	0.14	0.17	0.03	-0.10	-0.12	-0.10
-0.14	-0.15	-0.01	0.14	-0.06	-0.08	0.14	0.17	0.03	-0.10	-0.12	-0.10
-0.17	-0.18	-0.01	0.17	-0.07	-0.10	0.14	0.17	0.03	-0.10	-0.12	-0.10
-0.17	-0.18	-0.01	0.17	-0.07	-0.10	0.14	0.18	0.04	-0.10	-0.12	-0.10
-0.16	-0.17	-0.01	0.16	-0.07	-0.09	0.14	0.18	0.04	-0.10	-0.12	-0.10
-0.15	-0.17	-0.01	0.16	-0.07	-0.09	0.15	0.18	0.04	-0.10	-0.12	-0.10
-0.15	-0.17	-0.01	0.16	-0.07	-0.09	0.14	0.18	0.04	-0.10	-0.12	-0.10
-0.14	-0.16	-0.01	0.15	-0.06	-0.09	0.14	0.18	0.04	-0.10	-0.12	-0.10
-0.14	-0.15	-0.01	0.15	-0.06	-0.08	0.16	0.20	0.04	-0.10	-0.12	-0.10
-0.14	-0.15	-0.01	0.14	-0.06	-0.08	0.17	0.21	0.04	-0.10	-0.13	-0.10
-0.14	-0.14	-0.01	0.14	-0.06	-0.08	0.17	0.21	0.04	-0.10	-0.14	-0.10
-0.14	-0.15	-0.01	0.14	-0.07	-0.08	0.17	0.21	0.04	-0.10	-0.15	-0.12
-0.16	-0.17	-0.01	0.16	-0.07	-0.09	0.17	0.21	0.04	-0.10	-0.16	-0.12
-0.16	-0.17	-0.01	0.17	-0.08	-0.09	0.17	0.22	0.04	-0.10	-0.16	-0.11
-0.17	-0.17	-0.01	0.17	-0.08	-0.09	0.17	0.22	0.04	-0.10	-0.16	-0.12
-0.17	-0.17	-0.01	0.17	-0.08	-0.09	0.17	0.22	0.04	-0.10	-0.16	-0.12
-0.17	-0.17	-0.01	0.17	-0.08	-0.09	0.17	0.22	0.04	-0.10	-0.16	-0.12
-0.17	-0.18	-0.01	0.18	-0.08	-0.09	0.17	0.22	0.04	-0.10	-0.16	-0.12
-0.18	-0.18	-0.01	0.18	-0.09	-0.09	0.17	0.23	0.04	-0.10	-0.16	-0.12
-0.17	-0.18	-0.01	0.18	-0.09	-0.09	0.18	0.23	0.04	-0.10	-0.16	-0.12
-0.17	-0.18	-0.01	0.18	-0.09	-0.09	0.18	0.23	0.04	-0.10	-0.17	-0.12
-0.18	-0.18	-0.01	0.18	-0.09	-0.10	0.18	0.23	0.04	-0.10	-0.17	-0.12
-0.19	-0.18	0.00	0.19	-0.10	-0.09	0.18	0.23	0.04	-0.10	-0.17	-0.12
-0.19	-0.18	0.01	0.19	-0.10	-0.09	0.18	0.23	0.04	-0.10	-0.17	-0.12
-0.20	-0.19	0.01	0.19	-0.11	-0.09	0.18	0.24	0.05	-0.10	-0.17	-0.12
-0.20	-0.18	0.02	0.19	-0.11	-0.08	0.18	0.24	0.06	-0.10	-0.17	-0.12
-0.20	-0.17	0.03	0.19	-0.11	-0.07	0.18	0.24	0.06	-0.10	-0.17	-0.12
-0.20	-0.17	0.03	0.19	-0.12	-0.07	0.19	0.25	0.07	-0.10	-0.17	-0.12
-0.21	-0.17	0.04	0.19	-0.12	-0.06	0.19	0.25	0.07	-0.10	-0.17	-0.11
-0.20	-0.16	0.04	0.18	-0.12	-0.06	0.19	0.26	0.07	-0.10	-0.17	-0.12
-0.19	-0.16	0.04	0.18	-0.11	-0.06	0.18	0.26	0.07	-0.10	-0.17	-0.14
-0.19	-0.15	0.04	0.17	-0.11	-0.06	0.19	0.27	0.07	-0.10	-0.17	-0.14
-0.18	-0.15	0.03	0.16	-0.10	-0.06	0.21	0.27	0.07	-0.10	-0.17	-0.14
-0.21	-0.18	0.03	0.19	-0.12	-0.07	0.22	0.27	0.07	-0.10	-0.17	-0.14
-0.23	-0.20	0.03	0.21	-0.13	-0.08	0.23	0.28	0.07	-0.10	-0.17	-0.14
-0.21	-0.19	0.03	0.20	-0.12	-0.08	0.23	0.30	0.08	-0.10	-0.17	-0.14
-0.21	-0.19	0.03	0.20	-0.12	-0.08	0.22	0.29	0.08	-0.10	-0.17	-0.14
-0.21	-0.19	0.02	0.20	-0.12	-0.09	0.21	0.28	0.08	-0.10	-0.18	-0.14
-0.21	-0.19	0.02	0.20	-0.11	-0.08	0.23	0.30	0.09	-0.10	-0.18	-0.14
-0.20	-0.18	0.02	0.19	-0.11	-0.08	0.26	0.32	0.09	-0.10	-0.18	-0.14
-0.20	-0.18	0.01	0.19	-0.11	-0.09	0.27	0.33	0.09	-0.10	-0.18	-0.14
-0.20	-0.18	0.01	0.19	-0.11	-0.09	0.28	0.34	0.10	-0.10	-0.18	-0.14
-0.20	-0.18	0.01	0.19	-0.10	-0.09	0.28	0.36	0.10	-0.09	-0.18	-0.14
-0.19	-0.18	0.01	0.19	-0.10	-0.09	0.29	0.35	0.11	-0.10	-0.18	-0.14
-0.19	-0.18	0.01	0.18	-0.10	-0.09	0.29	0.36	0.11	-0.10	-0.19	-0.14
-0.18	-0.18	0.00	0.18	-0.09	-0.09	0.30	0.39	0.12	-0.10	-0.19	-0.15
-0.18	-0.18	0.01	0.18	-0.10	-0.09	0.31	0.40	0.12	-0.12	-0.19	-0.15
-0.19	-0.18	0.02	0.18	-0.10	-0.08	0.32	0.41	0.12	-0.12	-0.20	-0.16
-0.20	-0.17	0.03	0.19	-0.11	-0.07	0.32	0.43	0.13	-0.12	-0.20	-0.16
-0.21	-0.17	0.03	0.19	-0.12	-0.07	0.33	0.44	0.13	-0.13	-0.21	-0.17
-0.22	-0.17	0.04	0.20	-0.13	-0.07	0.34	0.45	0.13	-0.13	-0.22	-0.19
-0.23	-0.17	0.06	0.20	-0.14	-0.06	0.36	0.47	0.14	-0.13	-0.22	-0.19
-0.23	-0.17	0.06	0.20	-0.15	-0.05	0.38	0.49	0.14	-0.13	-0.22	-0.19
-0.24	-0.17	0.07	0.20	-0.16	-0.05	0.38	0.50	0.14	-0.12	-0.23	-0.21
-0.25	-0.17	0.08	0.21	-0.16	-0.05	0.38	0.51	0.14	-0.12	-0.23	-0.22
-0.25	-0.17	0.08	0.21	-0.17	-0.04	0.41	0.54	0.16	-0.12	-0.23	-0.21
-0.27	-0.17	0.10	0.22	-0.18	-0.04	0.43	0.57	0.18	-0.12	-0.23	-0.21
-0.27	-0.17	0.10	0.22	-0.18	-0.03	0.43	0.57	0.17	-0.12	-0.23	-0.21
-0.30	-0.20	0.10	0.25	-0.20	-0.05	0.46	0.59	0.19	-0.11	-0.23	-0.21
-0.32	-0.22	0.10	0.27	-0.21	-0.06	0.48	0.62	0.21	-0.12	-0.23	-0.20
-0.31	-0.21	0.10	0.26	-0.20	-0.05	0.49	0.64	0.21	-0.11	-0.23	-0.20
-0.31	-0.21	0.10	0.26	-0.20	-0.06	0.50	0.66	0.21	-0.11	-0.23	-0.20
-0.31	-0.21	0.10	0.26	-0.20	-0.06	0.51	0.68	0.22	-0.11	-0.23	-0.20
-0.31	-0.21	0.10	0.26	-0.20	-0.05	0.52	0.69	0.23	-0.11	-0.22	-0.20
-0.32	-0.22	0.10	0.27	-0.21	-0.06	0.53	0.70	0.23	-0.10	-0.23	-0.20
-0.33	-0.24	0.09	0.28	-0.21	-0.07	0.53	0.71	0.24	-0.10	-0.24	-0.20
-0.32	-0.23	0.10	0.27	-0.21	-0.07	0.55	0.73	0.24	-0.10	-0.24	-0.20
-0.34	-0.22	0.12	0.28	-0.23	-0.05	0.55	0.74	0.25	-0.10	-0.24	-0.20
-0.36	-0.21	0.15	0.29	-0.26	-0.03	0.57	0.75	0.26	-0.10	-0.23	-0.20
-0.37	-0.21	0.16	0.29	-0.27	-0.02	0.58	0.76	0.26	-0.10	-0.23	-0.19
-0.36	-0.20	0.15	0.28	-0.26	-0.03	0.59	0.76	0.27	-0.09	-0.23	-0.19
-0.35	-0.20	0.15	0.27	-0.25	-0.02	0.59	0.76	0.27	-0.09	-0.23	-0.19
-0.35	-0.19	0.16	0.27	-0.25	-0.02	0.59	0.79	0.29	-0.09	-0.23	-0.19
-0.34	-0.18	0.15	0.26	-0.24	-0.02	0.58	0.80	0.30	-0.09	-0.22	-0.19
-0.33	-0.18	0.15	0.25	-0.24	-0.01	0.58	0.79	0.29	-0.08	-0.22	-0.18
-0.32	-0.17	0.15	0.25	-0.24	-0.01	0.58	0.79	0.29	-0.08	-0.21	-0.18
-0.32	-0.17	0.15	0.24	-0.23	-0.01	0.57	0.79	0.29	-0.07	-0.21	-0.18
-0.32	-0.17	0.15	0.24	-0.23	-0.01	0.57	0.79	0.29	-0.07	-0.21	-0.18
-0.34	-0.16	0.17	0.25	-0.26	0.01	0.57	0.78	0.29	-0.07	-0.21	-0.18
-0.34	-0.16	0.18	0.25	-0.26	0.01	0.57	0.79	0.29	-0.07	-0.21	-0.18
-0.32	-0.15	0.17	0.24	-0.24	0.01	0.56	0.78	0.29	-0.07	-0.20	-0.18
-0.31	-0.15	0.16	0.23	-0.23	0.01	0.56	0.77	0.29	-0.07	-0.19	-0.18
-0.30	-0.15	0.15	0.22	-0.23	0.00	0.56	0.76	0.29	-0.06	-0.18	-0.17
-0.28	-0.14	0.14	0.21	-0.21	0.00	0.56	0.74	0.29	-0.06	-0.17	-0.16
-0.27	-0.14	0.13	0.20	-0.20	-0.00	0.55	0.74	0.30	-0.06	-0.17	-0.15
-0.26	-0.13	0.12	0.19	-0.19	-0.01	0.53	0.72	0.29	-0.05	-0.16	-0.14
-0.23	-0.12	0.12	0.18	-0.17	-0.00	0.52	0.68	0.28	-0.05	-0.15	-0.14
-0.24	-0.11	0.13	0.18	-0.18	0.01	0.48	0.64	0.26	-0.05	-0.15	-0.13
-0.23	-0.10	0.13	0.17	-0.18	0.01	0.45	0.60	0.24	-0.05	-0.14	-0.12
-0.21	-0.09	0.12	0.15	-0.17	0.01	0.42	0.57	0.23	-0.04	-0.13	-0.11
-0.20	-0.08	0.12	0.14	-0.16	0.02	0.39	0.54	0.22	-0.04	-0.12	-0.10
-0.19	-0.07	0.12	0.13	-0.15	0.03	0.36	0.49	0.20	-0.04	-0.12	-0.10
-0.18	-0.06	0.12	0.12	-0.15	0.03	0.33	0.46	0.19	-0.04	-0.11	-0.09
-0.17	-0.05	0.11	0.11	-0.14	0.03	0.30	0.42	0.17	-0.04	-0.10	-0.08
-0.16	-0.05	0.11	0.10	-0.14	0.03	0.28	0.38	0.16	-0.03	-0.09	-0.07
-0.15	-0.04	0.11	0.10	-0.13	0.03	0.25	0.35	0.14	-0.03	-0.07	-0.06
-0.13	-0.04	0.10	0.08	-0.11	0.03	0.22	0.31	0.12	-0.03	-0.06	-0.06
-0.12	-0.03	0.09	0.07	-0.10	0.03	0.20	0.28	0.11	-0.03	-0.05	-0.05
-0.10	-0.02	0.08	0.06	-0.09	0.03	0.19	0.25	0.10	-0.03	-0.04	-0.04
-0.09	-0.02	0.07	0.05	-0.08	0.03	0.17	0.24	0.09	-0.03	-0.03	-0.04
-0.08	-0.01	0.06	0.04	-0.07	0.02	0.16	0.22	0.08	-0.03	-0.02	-0.03
-0.07	-0.01	0.06	0.04	-0.06	0.02	0.14	0.20	0.07	-0.03	-0.02	-0.02
-0.05	-0.01	0.05	0.03	-0.05	0.02	0.13	0.17	0.07	-0.03	-0.02	-0.01
-0.05	-0.01	0.04	0.03	-0.04	0.02	0.12	0.16	0.06	-0.03	-0.01	-0.00
-0.04	-0.00	0.04	0.02	-0.04	0.02	0.11	0.14	0.05	-0.03	-0.01	-0.00
-0.03	0.00	0.03	0.01	-0.03	0.02	0.10	0.13	0.04	-0.03	-0.01	-0.01
-0.03	0.01	0.03	0.01	-0.03	0.02	0.09	0.11	0.04	-0.03	-0.01	-0.01
-0.02	0.01	0.03	0.01	-0.02	0.02	0.08	0.09	0.03	-0.03	-0.01	-0.01
-0.02	0.00	0.03	0.01	-0.02	0.01	0.07	0.08	0.03	-0.03	-0.00	-0.01
-0.02	-0.00	0.02	0.01	-0.02	0.01	0.06	0.08	0.02	-0.03	0.00	-0.01
-0.02	0.00	0.02	0.01	-0.02	0.01	0.05	0.07	0.02	-0.03	0.01	-0.01
-0.01	0.00	0.01	0.01	-0.01	0.01	0.05	0.07	0.01	-0.03	0.01	-0.01
-0.01	-0.00	0.01	0.01	-0.01	0.00	0.05	0.06	0.01	-0.03	0.01	-0.01
-0.01	-0.01	0.01	0.01	-0.01	0.00	0.04	0.06	0.01	-0.03	0.01	-0.01
-0.01	-0.01	0.01	0.01	-0.01	0.00	0.03	0.05	0.01	-0.03	0.01	-0.01
-0.01	-0.01	0.00	0.01	-0.01	0.00	0.03	0.05	0.01	-0.03	0.01	-0.01
-0.01	-0.01	0.00	0.01	-0.00	-0.00	0.03	0.04	0.01	-0.03	0.01	-0.01
-0.01	-0.01	-0.00	0.01	0.00	-0.01	0.03	0.04	0.01	-0.03	0.01	-0.01
-0.00	-0.01	-0.01	0.01	0.00	-0.01	0.03	0.04	0.01	-0.03	0.01	-0.01
0.00	-0.01	-0.01	0.00	0.01	-0.01	0.03	0.04	0.00	-0.03	0.01	-0.01
0.01	-0.01	-0.02	0.00	0.01	-0.01	0.03	0.03	0.00	-0.03	0.01	-0.01
0.01	-0.01	-0.02	0.01	0.01	-0.02	0.03	0.03	0.00	-0.03	0.01	-0.01
0.01	-0.01	-0.03	0.00	0.02	-0.02	0.03	0.03	0.00	-0.03	0.01	-0.01
0.01	-0.01	-0.02	0.00	0.01	-0.02	0.03	0.03	0.00	-0.02	0.01	-0.01
0.01	-0.01	-0.02	0.01	0.01	-0.02	0.03	0.02	0.00	-0.03	0.00	-0.01
0.00	-0.02	-0.02	0.01	0.01	-0.02	0.03	0.03	0.00	-0.02	0.00	-0.01
0.00	-0.02	-0.02	0.01	0.01	-0.02	0.03	0.03	0.00	-0.02	0.00	-0.01
0.00	-0.02	-0.02	0.01	0.01	-0.02	0.03	0.03	-0.00	-0.02	-0.00	-0.01
0.00	-0.02	-0.02	0.01	0.01	-0.02	0.03	0.03	-0.01	-0.02	-0.01	-0.01
0.00	-0.02	-0.02	0.01	0.01	-0.02	0.03	0.03	-0.01	-0.02	-0.01	-0.01
0.00	-0.02	-0.02	0.01	0.01	-0.02	0.03	0.03	-0.01	-0.03	-0.01	-0.01
0.00	-0.01	-0.01	0.01	0.01	-0.01	0.03	0.03	-0.01	-0.03	-0.01	-0.01
-0.01	-0.01	-0.00	0.01	-0.00	-0.00	0.03	0.03	-0.01	-0.03	-0.01	-0.01
-0.00	0.00	0.00	0.00	-0.00	0.00	0.03	0.03	-0.01	-0.04	-0.01	-0.02
-0.00	0.01	0.01	-0.00	-0.01	0.01	0.03	0.03	-0.01	-0.04	-0.02	-0.01
-0.01	0.01	0.02	-0.00	-0.01	0.01	0.03	0.03	-0.01	-0.04	-0.02	-0.02
-0.01	0.02	0.03	-0.01	-0.01	0.02	0.04	0.03	-0.01	-0.04	-0.02	-0.02
-0.01	0.03	0.03	-0.01	-0.02	0.03	0.03	0.02	-0.01	-0.04	-0.02	-0.02
-0.01	0.02	0.03	-0.01	-0.02	0.02	0.05	0.02	-0.01	-0.05	-0.03	-0.02
-0.01	0.01	0.02	0.00	-0.02	0.02	0.06	0.02	-0.01	-0.04	-0.03	-0.02
-0.02	0.00	0.03	0.01	-0.02	0.01	0.05	0.02	-0.01	-0.05	-0.03	-0.02
-0.03	-0.01	0.03	0.02	-0.03	0.01	0.06	0.02	-0.03	-0.05	-0.03	-0.03
-0.04	-0.01	0.03	0.03	-0.03	0.01	0.06	0.02	-0.04	-0.05	-0.03	-0.03
-0.04	-0.02	0.02	0.03	-0.03	0.00	0.06	0.02	-0.04	-0.05	-0.04	-0.02
-0.05	-0.03	0.02	0.04	-0.03	-0.00	0.06	0.02	-0.04	-0.05	-0.04	-0.03
-0.05	-0.03	0.02	0.04	-0.04	-0.01	0.06	0.02	-0.04	-0.05	-0.05	-0.03
-0.04	-0.03	0.02	0.04	-0.03	-0.00	0.06	0.02	-0.04	-0.06	-0.05	-0.03
-0.04	-0.03	0.02	0.04	-0.03	-0.00	0.06	0.02	-0.04	-0.06	-0.05	-0.03
-0.04	-0.02	0.02	0.03	-0.03	-0.00	0.06	0.02	-0.04	-0.06	-0.04	-0.03
-0.04	-0.02	0.02	0.03	-0.03	-0.00	0.06	0.02	-0.03	-0.07	-0.04	-0.03
-0.03	-0.02	0.01	0.03	-0.02	-0.00	0.05	0.02	-0.04	-0.06	-0.04	-0.04
-0.03	-0.01	0.01	0.02	-0.02	0.00	0.05	0.02	-0.04	-0.06	-0.04	-0.04
-0.03	-0.01	0.01	0.02	-0.02	0.00	0.05	0.02	-0.04	-0.06	-0.04	-0.04
-0.03	-0.02	0.01	0.02	-0.02	0.00	0.05	0.02	-0.04	-0.06	-0.03	-0.04
-0.03	-0.01	0.01	0.02	-0.02	0.00	0.05	0.02	-0.03	-0.06	-0.04	-0.03
-0.03	-0.01	0.02	0.02	-0.02	0.00	0.05	0.02	-0.03	-0.05	-0.03	-0.03
-0.04	-0.01	0.03	0.02	-0.03	0.01	0.05	0.02	-0.03	-0.05	-0.03	-0.03
-0.04	-0.01	0.03	0.02	-0.03	0.01	0.05	0.02	-0.03	-0.05	-0.03	-0.03
-0.04	-0.01	0.04	0.02	-0.04	0.01	0.05	0.03	-0.03	-0.05	-0.03	-0.02
-0.05	-0.00	0.04	0.03	-0.04	0.02	0.05	0.04	-0.03	-0.04	-0.03	-0.03
-0.04	0.00	0.04	0.02	-0.04	0.02	0.05	0.04	-0.03	-0.04	-0.02	-0.02
-0.04	0.00	0.04	0.02	-0.04	0.02	0.05	0.04	-0.03	-0.04	-0.02	-0.02
-0.04	0.00	0.04	0.02	-0.04	0.02	0.05	0.04	-0.02	-0.04	-0.02	-0.02
-0.05	-0.01	0.04	0.03	-0.04	0.02	0.04	0.04	-0.02	-0.04	-0.02	-0.02
-0.06	-0.02	0.04	0.04	-0.05	0.01	0.05	0.05	-0.01	-0.04	-0.02	-0.01
-0.06	-0.02	0.04	0.04	-0.05	0.01	0.07	0.05	-0.01	-0.03	-0.01	-0.01
-0.04	-0.01	0.04	0.03	-0.04	0.02	0.09	0.05	-0.01	-0.03	-0.01	-0.01
-0.03	0.01	0.04	0.01	-0.04	0.02	0.09	0.05	-0.00	-0.03	-0.01	-0.01
-0.03	0.02	0.05	0.00	-0.04	0.04	0.09	0.06	0.01	-0.03	-0.00	-0.01
-0.02	0.04	0.06	-0.01	-0.04	0.04	0.09	0.06	0.01	-0.02	0.00	-0.01
0.00	0.05	0.05	-0.03	-0.03	0.05	0.09	0.06	0.02	-0.01	0.01	-0.00
0.02	0.07	0.05	-0.04	-0.01	0.06	0.09	0.07	0.03	0.00	0.01	0.00
0.02	0.07	0.05	-0.04	-0.02	0.06	0.09	0.08	0.03	0.01	0.02	0.00
0.01	0.06	0.05	-0.04	-0.02	0.05	0.09	0.08	0.04	0.02	0.03	0.00
0.00	0.07	0.06	-0.04	-0.03	0.06	0.09	0.08	0.04	0.03	0.03	0.01
0.00	0.09	0.08	-0.04	-0.04	0.08	0.09	0.08	0.04	0.03	0.04	0.01
0.02	0.10	0.07	-0.06	-0.03	0.09	0.09	0.07	0.04	0.03	0.04	0.01
0.02	0.09	0.07	-0.05	-0.03	0.08	0.09	0.07	0.04	0.03	0.04	0.01
0.01	0.08	0.07	-0.05	-0.03	0.07	0.09	0.07	0.04	0.02	0.04	0.01
0.01	0.08	0.06	-0.04	-0.03	0.07	0.09	0.07	0.03	0.02	0.04	0.02
0.01	0.07	0.06	-0.04	-0.03	0.06	0.07	0.07	0.03	0.02	0.04	0.03
0.01	0.07	0.06	-0.04	-0.02	0.06	0.07	0.07	0.03	0.02	0.04	0.03
0.01	0.06	0.05	-0.03	-0.02	0.05	0.05	0.07	0.03	0.02	0.03	0.04
0.01	0.05	0.04	-0.03	-0.02	0.05	0.04	0.06	0.02	0.01	0.03	0.04
0.01	0.05	0.04	-0.03	-0.01	0.04	0.03	0.06	0.02	0.01	0.03	0.04
0.01	0.04	0.03	-0.03	-0.01	0.04	0.02	0.06	0.02	0.01	0.03	0.03
0.01	0.04	0.03	-0.03	-0.01	0.04	0.01	0.04	0.01	0.01	0.03	0.03
0.02	0.04	0.02	-0.03	0.00	0.03	0.00	0.02	0.02	0.01	0.03	0.02
0.03	0.04	0.02	-0.04	0.01	0.03	-0.01	0.01	0.01	0.01	0.03	0.01
0.03	0.04	0.01	-0.04	0.01	0.03	-0.02	-0.01	-0.01	-0.01	0.03	0.01
0.04	0.04	0.01	-0.04	0.01	0.03	-0.03	-0.02	-0.01	-0.01	0.03	-0.00
0.04	0.04	0.00	-0.04	0.02	0.02	-0.04	-0.03	-0.02	-0.01	0.03	-0.01
0.05	0.04	-0.00	-0.04	0.02	0.02	-0.05	-0.03	-0.03	-0.02	0.02	-0.00
0.07	0.04	-0.03	-0.06	0.05	0.01	-0.06	-0.03	-0.04	-0.03	0.02	0.00
0.09	0.04	-0.04	-0.07	0.07	-0.00	-0.06	-0.03	-0.04	-0.04	0.02	0.00
0.09	0.04	-0.04	-0.07	0.07	0.00	-0.06	-0.03	-0.05	-0.04	0.01	0.01
0.10	0.04	-0.05	-0.07	0.07	-0.00	-0.06	-0.04	-0.05	-0.04	0.01	0.01
0.09	0.04	-0.05	-0.06	0.07	-0.01	-0.05	-0.04	-0.05	-0.04	0.01	0.01
0.09	0.03	-0.06	-0.06	0.07	-0.01	-0.05	-0.04	-0.05	-0.04	0.01	0.01
0.07	0.02	-0.05	-0.05	0.06	-0.02	-0.05	-0.04	-0.05	-0.04	0.01	0.01
0.06	0.01	-0.05	-0.04	0.06	-0.02	-0.04	-0.04	-0.05	-0.04	0.01	0.01
0.06	0.01	-0.05	-0.03	0.05	-0.02	-0.04	-0.04	-0.05	-0.04	0.01	0.01
0.04	-0.00	-0.05	-0.02	0.04	-0.02	-0.04	-0.04	-0.05	-0.04	0.00	0.02
0.03	-0.01	-0.04	-0.01	0.04	-0.03	-0.03	-0.04	-0.05	-0.04	0.00	0.02
0.03	-0.02	-0.05	-0.00	0.04	-0.03	-0.02	-0.03	-0.05	-0.05	-0.00	0.01
0.02	-0.03	-0.04	0.01	0.03	-0.04	-0.02	-0.04	-0.05	-0.05	-0.01	0.00
0.01	-0.04	-0.04	0.01	0.02	-0.04	-0.01	-0.04	-0.05	-0.05	-0.01	-0.01
0.00	-0.04	-0.04	0.02	0.02	-0.04	-0.00	-0.04	-0.05	-0.05	-0.01	-0.01
-0.01	-0.04	-0.04	0.03	0.02	-0.04	0.00	-0.04	-0.05	-0.05	-0.01	-0.02
-0.02	-0.06	-0.04	0.04	0.01	-0.05	0.01	-0.04	-0.05	-0.05	-0.01	-0.03
-0.03	-0.06	-0.04	0.04	0.00	-0.05	0.01	-0.03	-0.05	-0.05	-0.01	-0.04
-0.03	-0.07	-0.04	0.05	0.00	-0.05	0.01	-0.03	-0.05	-0.05	-0.01	-0.04
-0.03	-0.07	-0.04	0.05	0.00	-0.05	0.01	-0.03	-0.05	-0.05	-0.01	-0.05
-0.04	-0.07	-0.03	0.06	-0.00	-0.05	0.01	-0.03	-0.05	-0.05	-0.01	-0.06
-0.06	-0.09	-0.03	0.07	-0.01	-0.06	0.02	-0.03	-0.05	-0.06	-0.02	-0.06
-0.07	-0.10	-0.03	0.09	-0.02	-0.07	0.01	-0.03	-0.05	-0.06	-0.02	-0.06
-0.07	-0.10	-0.03	0.08	-0.02	-0.06	0.01	-0.03	-0.05	-0.06	-0.02	-0.06
-0.07	-0.09	-0.02	0.08	-0.02	-0.06	0.02	-0.03	-0.05	-0.06	-0.02	-0.06
-0.05	-0.10	-0.05	0.07	0.00	-0.07	0.02	-0.03	-0.05	-0.05	-0.02	-0.06
-0.02	-0.09	-0.07	0.06	0.03	-0.08	0.02	-0.03	-0.05	-0.06	-0.03	-0.06
-0.02	-0.09	-0.07	0.06	0.03	-0.08	0.02	-0.03	-0.05	-0.06	-0.03	-0.06
-0.01	-0.09	-0.07	0.05	0.03	-0.08	0.02	-0.03	-0.05	-0.06	-0.03	-0.06
-0.01	-0.09	-0.08	0.05	0.03	-0.09	0.02	-0.03	-0.05	-0.06	-0.03	-0.06
-0.01	-0.09	-0.08	0.05	0.04	-0.08	0.03	-0.03	-0.05	-0.06	-0.03	-0.06
-0.01	-0.08	-0.08	0.05	0.04	-0.08	0.03	-0.03	-0.04	-0.06	-0.03	-0.06
-0.02	-0.09	-0.07	0.05	0.03	-0.08	0.03	-0.03	-0.04	-0.06	-0.03	-0.06
-0.02	-0.09	-0.07	0.05	0.02	-0.07	0.03	-0.03	-0.04	-0.06	-0.04	-0.06
-0.02	-0.08	-0.06	0.05	0.02	-0.07	0.03	-0.03	-0.04	-0.06	-0.04	-0.06
-0.03	-0.08	-0.05	0.05	0.01	-0.07	0.03	-0.03	-0.04	-0.05	-0.04	-0.06
-0.01	-0.08	-0.07	0.04	0.03	-0.08	0.03	-0.03	-0.04	-0.05	-0.03	-0.06
0.02	-0.08	-0.10	0.03	0.06	-0.09	0.03	-0.03	-0.04	-0.05	-0.03	-0.06
0.01	-0.07	-0.09	0.03	0.05	-0.08	0.03	-0.03	-0.04	-0.04	-0.03	-0.06
0.01	-0.07	-0.09	0.03	0.05	-0.08	0.03	-0.03	-0.04	-0.04	-0.03	-0.06
0.01	-0.08	-0.08	0.04	0.04	-0.08	0.03	-0.03	-0.03	-0.05	-0.03	-0.06
0.01	-0.07	-0.08	0.03	0.04	-0.07	0.03	-0.03	-0.04	-0.04	-0.02	-0.06
0.01	-0.07	-0.07	0.03	0.04	-0.07	0.03	-0.03	-0.03	-0.04	-0.03	-0.06
0.00	-0.07	-0.07	0.04	0.04	-0.07	0.03	-0.03	-0.03	-0.04	-0.03	-0.06
-0.00	-0.07	-0.07	0.04	0.03	-0.07	0.03	-0.01	-0.03	-0.04	-0.02	-0.06
-0.01	-0.07	-0.06	0.04	0.03	-0.06	0.03	-0.00	-0.03	-0.04	-0.02	-0.06
-0.01	-0.07	-0.06	0.04	0.03	-0.06	0.02	0.01	-0.03	-0.03	-0.02	-0.06
-0.01	-0.07	-0.06	0.04	0.03	-0.06	0.02	0.01	-0.03	-0.03	-0.02	-0.05
-0.01	-0.07	-0.06	0.04	0.03	-0.06	0.02	0.02	-0.01	-0.03	-0.02	-0.04
-0.01	-0.07	-0.06	0.04	0.03	-0.06	0.06	0.07	-0.00	-0.03	-0.01	-0.04
-0.00	-0.06	-0.06	0.03	0.03	-0.06	0.08	0.12	0.04	-0.00	0.00	-0.03
-0.00	-0.06	-0.06	0.03	0.03	-0.06	0.09	0.16	0.10	0.04	0.02	-0.03
0.00	-0.05	-0.06	0.03	0.03	-0.06	0.12	0.23	0.16	0.08	0.05	-0.02
0.02	-0.01	-0.04	-0.00	0.03	-0.03	0.15	0.30	0.24	0.14	0.08	0.01
0.04	0.02	-0.02	-0.03	0.03	0.00	0.12	0.24	0.28	0.18	0.10	0.03
0.05	0.08	0.03	-0.07	0.01	0.06	0.10	0.20	0.31	0.24	0.16	0.05
0.08	0.17	0.09	-0.12	-0.01	0.13	0.02	0.02	0.28	0.27	0.20	0.09
0.10	0.27	0.16	-0.19	-0.03	0.22	-0.12	-0.33	0.19	0.26	0.23	0.14
0.12	0.39	0.27	-0.26	-0.07	0.33	-0.23	-0.63	0.10	0.26	0.27	0.19
0.17	0.48	0.31	-0.33	-0.07	0.40	-0.36	-0.87	0.01	0.26	0.31	0.25
0.25	0.55	0.30	-0.40	-0.03	0.42	-0.53	-1.14	-0.12	0.25	0.35	0.29
0.31	0.60	0.29	-0.46	0.01	0.44	-0.75	-1.48	-0.28	0.25	0.39	0.35
0.39	0.65	0.26	-0.52	0.07	0.45	-1.02	-1.87	-0.47	0.25	0.45	0.42
0.53	0.69	0.17	-0.61	0.18	0.43	-1.31	-2.27	-0.69	0.24	0.48	0.49
0.65	0.73	0.08	-0.69	0.28	0.41	-1.61	-2.67	-0.90	0.24	0.54	0.56
0.75	0.75	-0.00	-0.75	0.38	0.37	-1.87	-2.96	-1.06	0.24	0.59	0.63
0.88	0.79	-0.09	-0.84	0.49	0.35	-2.13	-3.17	-1.17	0.24	0.68	0.70
1.03	0.86	-0.17	-0.95	0.60	0.34	-2.37	-3.31	-1.23	0.23	0.78	0.78
1.17	0.91	-0.26	-1.04	0.71	0.33	-2.50	-3.33	-1.25	0.23	0.88	0.84
1.32	0.93	-0.40	-1.12	0.86	0.27	-2.54	-3.22	-1.17	0.34	0.98	0.89
1.46	0.95	-0.51	-1.20	0.99	0.22	-2.52	-3.03	-1.04	0.47	1.08	0.94
1.54	0.94	-0.60	-1.24	1.07	0.17	-2.45	-2.81	-0.89	0.59	1.18	0.99
1.59	0.91	-0.68	-1.25	1.13	0.12	-2.35	-2.59	-0.74	0.69	1.28	1.02
1.64	0.89	-0.76	-1.26	1.20	0.07	-2.24	-2.40	-0.62	0.79	1.37	1.05
1.63	0.74	-0.89	-1.19	1.26	-0.07	-2.08	-2.15	-0.49	0.86	1.41	1.02
1.56	0.59	-0.97	-1.08	1.26	-0.19	-1.89	-1.88	-0.42	0.82	1.39	1.00
1.45	0.50	-0.95	-0.98	1.20	-0.22	-1.68	-1.63	-0.37	0.75	1.29	0.93
1.30	0.45	-0.85	-0.87	1.07	-0.20	-1.47	-1.42	-0.33	0.68	1.14	0.82
1.08	0.39	-0.69	-0.73	0.89	-0.15	-1.26	-1.24	-0.34	0.57	0.99	0.72
0.87	0.34	-0.53	-0.60	0.70	-0.10	-1.05	-1.03	-0.34	0.46	0.82	0.61
0.69	0.30	-0.39	-0.50	0.54	-0.04	-0.86	-0.85	-0.34	0.29	0.61	0.47
0.44	0.23	-0.22	-0.34	0.33	0.01	-0.66	-0.69	-0.34	0.07	0.33	0.31
0.21	0.13	-0.08	-0.17	0.15	0.02	-0.43	-0.52	-0.33	-0.13	0.06	0.15
0.11	0.07	-0.04	-0.09	0.07	0.01	-0.24	-0.34	-0.27	-0.20	-0.10	0.03
-0.00	0.01	0.01	-0.00	-0.01	0.01	-0.14	-0.20	-0.21	-0.19	-0.14	-0.02
-0.06	-0.04	0.02	0.05	-0.04	-0.01	-0.08	-0.12	-0.16	-0.16	-0.14	-0.05
-0.08	-0.08	0.00	0.08	-0.04	-0.04	-0.02	-0.05	-0.12	-0.14	-0.14	-0.08
-0.11	-0.11	-0.00	0.11	-0.05	-0.06	0.03	0.01	-0.08	-0.11	-0.14	-0.08
-0.10	-0.12	-0.01	0.11	-0.05	-0.06	0.07	0.07	-0.04	-0.09	-0.14	-0.09
-0.12	-0.13	-0.02	0.12	-0.05	-0.07	0.09	0.10	-0.01	-0.09	-0.14	-0.09
-0.10	-0.13	-0.03	0.12	-0.04	-0.08	0.10	0.10	0.00	-0.09	-0.14	-0.10
-0.11	-0.14	-0.04	0.12	-0.04	-0.09	0.11	0.11	0.00	-0.09	-0.13	-0.12
-0.12	-0.16	-0.04	0.14	-0.04	-0.10	0.11	0.13	0.01	-0.09	-0.13	-0.12
-0.12	-0.15	-0.04	0.14	-0.04	-0.10	0.12	0.14	0.01	-0.09	-0.13	-0.12
-0.12	-0.15	-0.03	0.14	-0.05	-0.09	0.12	0.14	0.01	-0.09	-0.13	-0.13
-0.13	-0.16	-0.03	0.14	-0.05	-0.09	0.12	0.14	0.01	-0.09	-0.13	-0.13
-0.13	-0.15	-0.02	0.14	-0.05	-0.09	0.12	0.14	0.01	-0.09	-0.13	-0.13
-0.13	-0.15	-0.02	0.14	-0.06	-0.08	0.13	0.15	0.02	-0.09	-0.13	-0.14
-0.14	-0.15	-0.01	0.14	-0.06	-0.08	0.15	0.17	0.03	-0.09	-0.13	-0.14
-0.14	-0.15	-0.01	0.14	-0.06	-0.08	0.16	0.17	0.03	-0.09	-0.13	-0.14
-0.14	-0.15	-0.01	0.14	-0.07	-0.08	0.15	0.17	0.04	-0.09	-0.12	-0.14
-0.14	-0.14	-0.01	0.14	-0.07	-0.07	0.15	0.17	0.05	-0.09	-0.12	-0.14
-0.14	-0.14	-0.01	0.14	-0.07	-0.07	0.15	0.17	0.05	-0.08	-0.12	-0.14
-0.14	-0.14	-0.01	0.14	-0.07	-0.07	0.15	0.17	0.06	-0.08	-0.12	-0.14
-0.14	-0.14	-0.01	0.14	-0.07	-0.07	0.15	0.17	0.06	-0.08	-0.12	-0.14
-0.13	-0.14	-0.01	0.14	-0.07	-0.07	0.15	0.17	0.06	-0.08	-0.12	-0.14
-0.14	-0.14	-0.01	0.14	-0.07	-0.07	0.15	0.18	0.06	-0.08	-0.12	-0.14
-0.13	-0.14	-0.01	0.14	-0.07	-0.07	0.15	0.18	0.06	-0.08	-0.12	-0.14
-0.13	-0.14	-0.01	0.13	-0.06	-0.07	0.15	0.18	0.06	-0.08	-0.12	-0.14
-0.13	-0.14	-0.01	0.13	-0.06	-0.07	0.15	0.18	0.06	-0.08	-0.12	-0.14
-0.13	-0.14	-0.01	0.13	-0.06	-0.07	0.15	0.18	0.06	-0.08	-0.12	-0.14
-0.13	-0.13	-0.01	0.13	-0.06	-0.07	0.15	0.19	0.06	-0.08	-0.12	-0.14
-0.12	-0.13	-0.01	0.13	-0.06	-0.07	0.15	0.19	0.06	-0.08	-0.12	-0.14
-0.12	-0.13	-0.01	0.13	-0.06	-0.07	0.15	0.19	0.06	-0.08	-0.13	-0.14
-0.12	-0.13	-0.01	0.13	-0.06	-0.07	0.15	0.19	0.06	-0.08	-0.13	-0.14
-0.15	-0.13	0.02	0.14	-0.09	-0.06	0.15	0.20	0.05	-0.08	-0.14	-0.14
-0.17	-0.14	0.04	0.16	-0.11	-0.05	0.16	0.20	0.06	-0.08	-0.15	-0.14
-0.17	-0.14	0.03	0.15	-0.10	-0.06	0.16	0.20	0.06	-0.09	-0.15	-0.14
-0.18	-0.15	0.03	0.17	-0.10	-0.06	0.17	0.20	0.06	-0.09	-0.15	-0.14
-0.21	-0.18	0.03	0.19	-0.12	-0.08	0.18	0.20	0.06	-0.09	-0.15	-0.14
-0.21	-0.18	0.03	0.20	-0.12	-0.08	0.18	0.20	0.06	-0.09	-0.15	-0.15
-0.20	-0.18	0.02	0.19	-0.11	-0.08	0.18	0.21	0.06	-0.09	-0.15	-0.16
-0.20	-0.18	0.02	0.19	-0.11	-0.08	0.18	0.23	0.06	-0.09	-0.15	-0.17
-0.20	-0.17	0.02	0.18	-0.11	-0.08	0.18	0.23	0.06	-0.09	-0.15	-0.17
-0.19	-0.17	0.02	0.18	-0.10	-0.08	0.17	0.23	0.06	-0.09	-0.15	-0.17
-0.19	-0.18	0.01	0.18	-0.10	-0.08	0.19	0.24	0.06	-0.09	-0.15	-0.16
-0.19	-0.17	0.01	0.18	-0.10	-0.08	0.20	0.24	0.06	-0.09	-0.15	-0.17
-0.18	-0.17	0.01	0.17	-0.10	-0.08	0.20	0.24	0.06	-0.09	-0.15	-0.17
-0.18	-0.17	0.01	0.17	-0.10	-0.08	0.20	0.24	0.06	-0.09	-0.15	-0.17
-0.17	-0.17	0.01	0.17	-0.09	-0.08	0.20	0.25	0.06	-0.09	-0.15	-0.17
-0.17	-0.16	0.01	0.17	-0.09	-0.08	0.21	0.26	0.07	-0.09	-0.15	-0.17
-0.17	-0.17	0.00	0.17	-0.09	-0.08	0.22	0.26	0.07	-0.09	-0.15	-0.17
-0.16	-0.16	-0.00	0.16	-0.08	-0.08	0.22	0.27	0.07	-0.09	-0.16	-0.17
-0.16	-0.16	0.00	0.16	-0.08	-0.08	0.22	0.28	0.07	-0.09	-0.18	-0.17
-0.17	-0.16	0.01	0.16	-0.09	-0.08	0.23	0.28	0.08	-0.09	-0.19	-0.17
-0.18	-0.16	0.02	0.17	-0.10	-0.07	0.24	0.30	0.08	-0.08	-0.18	-0.17
-0.18	-0.16	0.02	0.17	-0.10	-0.07	0.25	0.32	0.08	-0.09	-0.19	-0.17
-0.19	-0.16	0.03	0.18	-0.11	-0.06	0.25	0.32	0.08	-0.10	-0.21	-0.17
-0.20	-0.16	0.04	0.18	-0.12	-0.06	0.27	0.32	0.09	-0.10	-0.21	-0.17
-0.20	-0.16	0.05	0.18	-0.12	-0.05	0.28	0.33	0.09	-0.11	-0.22	-0.19
-0.21	-0.15	0.06	0.18	-0.13	-0.05	0.28	0.34	0.08	-0.11	-0.22	-0.19
-0.22	-0.15	0.06	0.19	-0.14	-0.05	0.28	0.35	0.09	-0.11	-0.23	-0.18
