---
Mammal:            human
Fs:                200
Integration_level: electrocardiogram

Channels:

    - type:   electrography
      name:   ECG1
      unit:   mV
      enable: yes

    - type:   electrography
      name:   ECG2
      unit:   mV
      enable: yes

---

5.10 4.97
5.09 4.94
5.10 4.93
5.10 4.94
5.10 4.94
5.09 4.95
5.08 4.96
5.07 4.96
5.07 4.96
5.06 4.96
5.06 4.96
5.06 4.95
5.06 4.95
5.06 4.95
5.06 4.95
5.06 4.95
5.06 4.96
5.05 4.95
5.05 4.96
5.06 4.97
5.06 4.98
5.05 4.99
5.01 5.03
4.93 5.12
4.90 5.24
4.95 5.32
5.10 5.33
5.37 5.31
5.62 5.30
5.67 5.27
5.49 5.28
5.23 5.17
5.15 4.64
5.19 4.45
5.11 4.52
5.13 4.56
5.14 4.72
5.13 4.88
5.12 4.94
5.11 4.94
5.11 4.94
5.10 4.95
5.09 4.93
5.09 4.92
5.08 4.91
5.09 4.90
5.08 4.90
5.07 4.90
5.06 4.92
5.05 4.92
5.05 4.92
5.05 4.92
5.05 4.92
5.05 4.91
5.05 4.91
5.05 4.91
5.04 4.90
5.04 4.90
5.04 4.91
5.04 4.91
5.04 4.92
5.05 4.93
5.05 4.95
5.06 4.96
5.06 4.97
5.06 4.99
5.08 5.01
5.08 5.03
5.08 5.04
5.08 5.05
5.08 5.05
5.09 5.05
5.09 5.05
5.10 5.05
5.11 5.07
5.12 5.08
5.13 5.10
5.14 5.12
5.15 5.15
5.16 5.17
5.16 5.17
5.16 5.17
5.15 5.18
5.16 5.18
5.15 5.17
5.15 5.15
5.15 5.13
5.15 5.11
5.14 5.09
5.13 5.08
5.10 5.05
5.09 5.04
5.09 5.04
5.09 5.03
5.09 5.03
5.09 5.02
5.09 5.01
5.08 5.01
5.09 5.00
5.08 5.00
5.08 5.00
5.08 5.00
5.08 5.01
5.08 5.01
5.09 5.02
5.09 5.01
5.09 5.00
5.10 4.99
5.09 4.99
5.09 4.97
5.10 4.97
5.10 4.96
5.10 4.95
5.10 4.95
5.10 4.94
5.10 4.95
5.10 4.97
5.10 4.99
5.10 4.99
5.10 5.00
5.10 5.00
5.09 5.00
5.09 4.99
5.09 4.99
5.09 4.98
5.09 4.98
5.10 4.98
5.10 4.98
5.11 4.98
5.11 4.99
5.09 4.99
5.08 5.00
5.05 5.03
5.00 5.13
4.98 5.34
5.02 5.51
5.14 5.57
5.36 5.50
5.58 5.36
5.64 5.26
5.47 5.33
5.23 5.21
5.15 4.70
5.18 4.48
5.11 4.53
5.12 4.58
5.14 4.75
5.11 4.86
5.08 4.86
5.07 4.84
5.07 4.84
5.07 4.84
5.07 4.84
5.07 4.84
5.07 4.83
5.08 4.83
5.09 4.84
5.09 4.83
5.09 4.83
5.10 4.84
5.11 4.86
5.12 4.87
5.12 4.88
5.12 4.88
5.12 4.88
5.12 4.90
5.13 4.91
5.13 4.92
5.13 4.94
5.12 4.95
5.11 4.97
5.11 4.99
5.10 5.01
5.10 5.03
5.10 5.04
5.10 5.05
5.10 5.06
5.10 5.08
5.10 5.09
5.11 5.10
5.11 5.10
5.11 5.11
5.11 5.11
5.12 5.10
5.12 5.10
5.12 5.10
5.12 5.10
5.13 5.11
5.14 5.10
5.14 5.10
5.15 5.09
5.15 5.08
5.16 5.07
5.16 5.06
5.16 5.04
5.15 5.03
5.14 5.02
5.14 5.02
5.13 5.02
5.13 5.02
5.12 5.04
5.12 5.04
5.11 5.03
5.11 5.03
5.10 5.02
5.11 5.02
5.10 5.01
5.08 5.00
5.07 4.99
5.07 4.99
5.07 4.98
5.07 4.97
5.07 4.97
5.07 4.97
5.07 4.97
5.07 4.96
5.07 4.96
5.08 4.95
5.08 4.95
5.09 4.94
5.10 4.93
5.11 4.93
5.11 4.92
5.12 4.92
5.12 4.93
5.13 4.93
5.14 4.93
5.14 4.92
5.14 4.93
5.14 4.94
5.14 4.95
5.14 4.97
5.13 4.98
5.13 4.99
5.12 5.00
5.12 4.99
5.11 4.99
5.11 5.00
5.11 5.00
5.11 5.00
5.11 5.00
5.10 5.00
5.09 5.00
5.08 5.00
5.07 5.00
5.07 4.99
5.06 4.97
5.06 4.96
5.06 4.94
5.06 4.94
5.06 4.94
5.06 4.93
5.05 4.92
5.05 4.91
5.05 4.90
5.04 4.90
5.06 4.90
5.07 4.90
5.08 4.90
5.10 4.93
5.11 4.96
5.11 4.96
5.12 4.98
5.12 5.00
5.13 5.00
5.13 5.00
5.13 5.00
5.12 5.00
5.12 5.00
5.12 5.00
5.12 5.00
5.12 5.00
5.12 5.01
5.12 5.01
5.12 4.99
5.11 4.98
5.08 4.99
5.01 5.05
4.96 5.15
4.99 5.26
5.11 5.34
5.35 5.36
5.61 5.33
5.67 5.27
5.51 5.30
5.25 5.27
5.14 4.80
5.18 4.50
5.09 4.54
5.10 4.56
5.12 4.70
5.11 4.84
5.08 4.86
5.06 4.83
5.05 4.80
5.03 4.78
5.02 4.78
5.02 4.81
5.05 4.83
5.08 4.88
5.09 4.89
5.10 4.89
5.10 4.89
5.11 4.89
5.11 4.90
5.11 4.91
5.11 4.92
5.11 4.93
5.11 4.94
5.11 4.95
5.11 4.96
5.11 4.97
5.11 4.97
5.11 4.97
5.11 4.97
5.12 4.96
5.11 4.96
5.10 4.97
5.10 4.97
5.10 4.98
5.11 4.99
5.11 4.99
5.11 4.99
5.11 4.99
5.12 5.01
5.12 5.01
5.13 5.02
5.13 5.03
5.13 5.04
5.13 5.04
5.14 5.05
5.14 5.05
5.14 5.06
5.14 5.07
5.15 5.07
5.15 5.06
5.15 5.06
5.15 5.04
5.15 5.03
5.15 5.05
5.16 5.06
5.16 5.07
5.17 5.10
5.18 5.11
5.18 5.11
5.17 5.12
5.17 5.11
5.16 5.10
5.15 5.08
5.14 5.06
5.14 5.04
5.14 5.03
5.13 5.01
5.12 5.02
5.11 5.03
5.10 5.03
5.10 5.03
5.10 5.03
5.10 5.02
5.10 5.01
5.10 5.00
5.10 4.99
5.10 4.99
5.10 4.99
5.09 4.98
5.09 4.97
5.10 4.95
5.10 4.94
5.10 4.94
5.10 4.93
5.10 4.93
5.09 4.92
5.07 4.93
5.03 4.98
5.00 5.12
5.03 5.30
5.13 5.41
5.33 5.40
5.58 5.33
5.70 5.24
5.61 5.30
5.39 5.16
5.28 4.73
5.29 4.53
5.21 4.67
5.22 4.75
5.21 4.89
5.17 4.96
5.14 4.93
5.13 4.93
5.12 4.94
5.11 4.95
5.10 4.95
5.09 4.95
5.09 4.95
5.08 4.95
5.08 4.94
5.07 4.94
5.07 4.93
5.07 4.93
5.07 4.92
5.06 4.91
5.07 4.90
5.07 4.89
5.06 4.88
5.07 4.88
5.07 4.87
5.07 4.87
5.07 4.85
5.07 4.85
5.08 4.84
5.08 4.85
5.08 4.86
5.08 4.86
5.08 4.87
5.08 4.88
5.08 4.89
5.08 4.91
5.08 4.97
5.09 4.99
5.11 5.03
5.13 5.06
5.14 5.08
5.15 5.10
5.16 5.12
5.16 5.13
5.15 5.13
5.15 5.15
5.14 5.16
5.14 5.16
5.13 5.15
5.13 5.14
5.12 5.13
5.12 5.11
5.11 5.11
5.11 5.10
5.10 5.09
5.10 5.08
5.10 5.06
5.09 5.04
5.08 5.02
5.08 5.00
5.07 4.98
5.07 4.97
5.07 4.96
5.07 4.95
5.07 4.94
5.07 4.94
5.07 4.93
5.08 4.93
5.07 4.92
5.07 4.91
5.07 4.90
5.08 4.89
5.08 4.88
5.08 4.88
5.07 4.88
5.07 4.88
5.07 4.90
5.04 4.98
5.00 5.10
5.04 5.31
5.12 5.45
5.28 5.54
5.51 5.49
5.68 5.39
5.65 5.33
5.43 5.25
5.24 4.91
5.26 4.59
5.21 4.66
5.19 4.74
5.17 4.85
5.13 4.95
5.10 4.92
5.09 4.89
5.08 4.88
5.07 4.87
5.06 4.86
5.06 4.85
5.05 4.85
5.05 4.83
5.05 4.82
5.05 4.80
5.05 4.79
5.05 4.79
5.04 4.78
5.04 4.77
5.05 4.77
5.04 4.77
5.05 4.77
5.04 4.76
5.04 4.76
5.05 4.78
5.06 4.82
5.07 4.86
5.09 4.92
5.11 4.96
5.12 4.98
5.13 5.00
5.13 5.01
5.13 5.02
5.13 5.03
5.14 5.04
5.14 5.04
5.14 5.05
5.13 5.07
5.12 5.08
5.12 5.10
5.12 5.11
5.12 5.11
5.12 5.12
5.12 5.13
5.12 5.13
5.12 5.13
5.13 5.12
5.13 5.11
5.12 5.10
5.12 5.07
5.11 5.05
5.10 5.03
5.10 5.01
5.09 4.99
5.09 4.99
5.09 4.99
5.09 4.99
5.10 5.00
5.10 4.99
5.10 4.98
5.11 4.97
5.11 4.96
5.11 4.96
5.11 4.96
5.12 4.96
5.12 4.97
5.12 4.97
5.12 4.97
5.12 4.97
5.12 4.98
5.12 4.98
5.12 4.97
5.12 4.96
5.12 4.95
5.12 4.94
5.11 4.93
5.09 4.93
5.08 4.93
5.08 4.92
5.07 4.91
5.06 4.92
5.03 4.97
4.99 5.11
5.01 5.34
5.08 5.49
5.25 5.58
5.48 5.49
5.66 5.37
5.64 5.29
5.43 5.35
5.21 5.07
5.21 4.60
5.18 4.55
5.14 4.60
5.16 4.71
5.15 4.87
5.13 4.92
5.10 4.89
5.09 4.87
5.09 4.86
5.09 4.85
5.08 4.84
5.08 4.83
5.08 4.83
5.07 4.83
5.07 4.82
5.08 4.83
5.08 4.85
5.08 4.87
5.08 4.88
5.08 4.89
5.08 4.89
5.09 4.89
5.09 4.90
5.08 4.90
5.07 4.90
5.07 4.90
5.06 4.90
5.07 4.90
5.06 4.90
5.06 4.91
5.06 4.92
5.05 4.93
5.06 4.93
5.05 4.94
5.06 4.95
5.06 4.97
5.07 5.00
5.08 5.01
5.09 5.03
5.10 5.05
5.11 5.07
5.12 5.09
5.12 5.10
5.13 5.10
5.14 5.11
5.15 5.13
5.16 5.12
5.16 5.11
5.16 5.10
5.16 5.09
5.16 5.07
5.15 5.05
5.15 5.03
5.14 5.02
5.13 5.00
5.13 4.99
5.12 4.99
5.12 4.97
5.10 4.96
5.09 4.95
5.09 4.96
5.08 4.95
5.08 4.93
5.08 4.93
5.08 4.93
5.08 4.93
5.08 4.93
5.08 4.93
5.08 4.93
5.08 4.92
5.07 4.91
5.07 4.91
5.07 4.91
5.07 4.91
5.07 4.91
5.06 4.92
5.06 4.93
5.07 4.95
5.08 4.98
5.09 5.00
5.09 5.01
5.09 5.01
5.10 5.01
5.10 5.00
5.11 4.99
5.11 4.99
5.12 4.99
5.12 4.98
5.12 4.98
5.12 4.97
5.11 4.96
5.11 4.96
5.11 4.95
5.10 4.93
5.09 4.92
5.08 4.92
5.08 4.93
5.07 4.93
5.07 4.93
5.06 4.93
5.06 4.92
5.05 4.92
5.05 4.92
5.05 4.93
5.05 4.93
5.05 4.93
5.05 4.92
5.05 4.92
5.06 4.93
5.05 4.92
5.05 4.92
5.04 4.92
5.04 4.91
5.04 4.90
5.04 4.90
5.04 4.90
5.03 4.90
5.02 4.89
5.03 4.91
5.03 4.93
5.04 4.93
5.05 4.94
5.06 5.00
5.01 5.06
4.95 5.17
4.96 5.29
5.05 5.34
5.26 5.34
5.52 5.30
5.68 5.30
5.61 5.27
5.36 5.35
5.16 5.06
5.20 4.59
5.15 4.59
5.11 4.60
5.12 4.65
5.12 4.81
5.09 4.89
5.07 4.86
5.06 4.85
5.05 4.84
5.05 4.84
5.05 4.84
5.04 4.84
5.04 4.83
5.04 4.82
5.03 4.82
5.04 4.82
5.04 4.83
5.03 4.83
5.03 4.83
5.03 4.82
5.03 4.82
5.04 4.81
5.04 4.81
5.04 4.80
5.04 4.80
5.05 4.81
5.05 4.82
5.05 4.84
5.04 4.86
5.05 4.90
5.07 4.93
5.08 4.95
5.10 5.00
5.12 5.04
5.12 5.09
5.12 5.11
5.12 5.11
5.12 5.10
5.13 5.09
5.13 5.08
5.14 5.10
5.15 5.12
5.15 5.13
5.13 5.12
5.13 5.12
5.14 5.14
5.14 5.15
5.14 5.16
5.15 5.16
5.15 5.15
5.15 5.15
5.15 5.14
5.14 5.13
5.14 5.11
5.13 5.09
5.12 5.09
5.11 5.07
5.10 5.06
5.09 5.04
5.08 5.01
5.07 4.99
5.07 4.98
5.07 4.98
5.06 4.97
5.06 4.95
5.05 4.93
5.06 4.94
5.06 4.93
5.06 4.92
5.07 4.93
5.07 4.95
5.07 4.95
5.08 4.98
5.09 5.03
5.09 5.04
5.09 5.04
5.10 5.04
5.11 5.04
5.11 5.04
5.12 5.03
5.11 5.02
5.10 5.01
5.09 5.01
5.09 5.02
5.09 5.02
5.09 5.02
5.09 5.02
5.09 5.01
5.09 5.01
5.09 4.99
5.09 4.99
5.08 4.99
5.09 4.99
5.08 4.98
5.08 4.97
5.07 4.96
5.07 4.96
5.07 4.95
5.07 4.95
5.07 4.94
5.07 4.93
5.07 4.92
5.07 4.92
5.07 4.91
5.06 4.91
5.06 4.91
5.05 4.91
5.03 4.90
4.97 4.93
4.88 5.01
4.87 5.12
4.96 5.17
5.14 5.19
5.40 5.14
5.59 5.17
5.54 5.14
5.32 5.27
5.13 5.04
5.19 4.62
5.19 4.66
5.15 4.70
5.18 4.79
5.16 4.94
5.13 5.01
5.11 4.99
5.10 4.98
5.10 4.97
5.09 4.96
5.09 4.96
5.09 4.96
5.09 4.95
5.08 4.96
5.08 4.95
5.08 4.95
5.08 4.95
5.07 4.95
5.07 4.95
5.07 4.94
5.07 4.94
5.07 4.94
5.07 4.93
5.07 4.93
5.07 4.93
5.07 4.92
5.07 4.92
5.08 4.92
5.08 4.92
5.07 4.92
5.08 4.93
5.08 4.94
5.08 4.95
5.07 4.95
5.08 4.96
5.08 4.96
5.09 4.97
5.10 4.97
5.10 4.98
5.10 5.00
5.09 5.01
5.08 5.03
5.10 5.07
5.11 5.10
5.12 5.11
5.14 5.15
5.14 5.19
5.14 5.19
5.14 5.19
5.13 5.18
5.13 5.18
5.13 5.17
5.13 5.17
5.12 5.15
5.12 5.14
5.12 5.12
5.11 5.10
5.11 5.08
5.10 5.06
5.10 5.04
5.09 5.03
5.09 5.00
5.08 4.99
5.08 4.97
5.07 4.96
5.07 4.96
5.07 4.95
5.06 4.94
5.06 4.93
5.05 4.92
5.05 4.91
5.05 4.91
5.04 4.91
5.05 4.91
5.05 4.90
5.06 4.89
5.06 4.88
5.05 4.87
5.05 4.87
5.06 4.86
5.06 4.87
5.06 4.87
5.05 4.89
5.06 4.91
5.06 4.96
5.07 5.00
5.10 5.03
5.10 5.06
5.10 5.08
5.09 5.08
5.10 5.08
5.10 5.08
5.10 5.09
5.10 5.09
5.10 5.09
5.10 5.09
5.10 5.09
5.10 5.09
5.10 5.09
5.10 5.09
5.09 5.08
5.09 5.08
5.09 5.07
5.09 5.06
5.09 5.04
5.08 5.03
5.08 5.01
5.08 4.98
5.08 4.97
5.07 4.95
5.07 4.92
5.05 4.92
5.00 4.93
4.92 5.00
4.89 5.13
4.94 5.23
5.11 5.28
5.36 5.27
5.58 5.30
5.60 5.23
5.40 5.27
5.17 5.05
5.14 4.54
5.14 4.45
5.08 4.54
5.10 4.65
5.11 4.85
5.11 4.99
5.11 5.00
5.10 4.97
5.09 4.96
5.09 4.96
5.09 4.96
5.09 4.96
5.08 4.95
5.08 4.95
5.08 4.95
5.09 4.94
5.08 4.94
5.09 4.93
5.09 4.93
5.08 4.93
5.09 4.93
5.09 4.93
5.09 4.93
5.09 4.93
5.09 4.93
5.09 4.94
5.09 4.94
5.09 4.95
5.09 4.95
5.10 4.96
5.09 4.97
5.10 4.98
5.10 4.99
5.11 5.00
5.11 5.03
5.11 5.04
5.12 5.06
5.12 5.07
5.13 5.08
5.14 5.10
5.15 5.13
5.15 5.15
5.15 5.16
5.15 5.17
5.16 5.19
5.17 5.20
5.18 5.20
5.18 5.19
5.18 5.17
5.17 5.17
5.16 5.17
5.15 5.15
5.13 5.12
5.12 5.11
5.12 5.11
5.11 5.09
5.11 5.07
5.11 5.06
5.11 5.05
5.10 5.05
5.10 5.03
5.10 5.02
5.09 5.00
5.09 4.97
5.09 4.95
5.09 4.94
5.09 4.93
5.09 4.93
5.08 4.92
5.08 4.92
5.08 4.92
5.08 4.92
5.08 4.92
5.08 4.92
5.08 4.93
5.08 4.93
5.08 4.94
5.08 4.94
5.09 4.95
5.09 4.96
5.09 4.96
5.10 4.98
5.10 5.00
5.10 5.02
5.10 5.03
5.11 5.03
5.10 5.04
5.11 5.06
5.11 5.07
5.11 5.08
5.11 5.08
5.11 5.06
5.11 5.05
5.09 5.07
5.03 5.15
5.00 5.33
5.02 5.47
5.13 5.52
5.32 5.46
5.54 5.32
5.59 5.18
5.45 5.28
5.24 5.26
5.17 4.82
5.20 4.58
5.13 4.64
5.14 4.65
5.15 4.80
5.13 4.91
5.10 4.91
5.09 4.89
5.09 4.89
5.08 4.89
5.08 4.89
5.07 4.88
5.07 4.88
5.07 4.88
5.07 4.88
5.07 4.89
5.07 4.88
5.07 4.89
5.08 4.89
5.08 4.90
5.08 4.90
5.08 4.91
5.09 4.93
5.09 4.95
5.09 4.97
5.09 4.98
5.10 4.99
5.11 5.00
5.11 5.02
5.11 5.03
5.11 5.05
5.12 5.06
5.12 5.04
5.13 5.05
5.13 5.05
5.12 5.04
5.09 5.03
5.10 5.05
5.11 5.06
5.11 5.08
5.11 5.10
5.12 5.13
5.13 5.14
5.13 5.14
5.13 5.13
5.14 5.14
5.14 5.13
5.14 5.11
5.14 5.10
5.14 5.10
5.13 5.09
5.13 5.08
5.12 5.06
5.12 5.06
5.11 5.04
5.11 5.03
5.11 5.01
5.10 5.00
5.09 4.99
5.09 4.99
5.09 4.98
5.09 4.97
5.08 4.97
5.09 4.97
5.08 4.98
5.08 5.00
5.08 5.00
5.07 5.01
5.07 5.02
5.07 5.02
5.08 5.02
5.08 5.01
5.07 5.01
5.08 5.01
5.08 5.01
5.09 5.01
5.08 5.00
5.07 4.99
5.06 4.98
5.07 5.00
5.07 5.01
5.07 5.02
5.08 5.03
5.08 5.05
5.04 5.11
5.01 5.23
5.03 5.44
5.12 5.56
5.30 5.60
5.54 5.50
5.67 5.37
5.63 5.33
5.44 5.24
5.26 4.81
5.26 4.50
5.19 4.57
5.18 4.65
5.18 4.79
5.15 4.92
5.12 4.91
5.11 4.89
5.10 4.89
5.10 4.89
5.09 4.88
5.09 4.88
5.09 4.88
5.09 4.88
5.09 4.89
5.10 4.91
5.11 4.94
5.11 4.96
5.11 4.97
5.10 4.99
5.10 5.01
5.09 5.02
5.08 5.04
5.08 5.04
5.09 5.04
5.10 5.04
5.12 5.05
5.13 5.09
5.15 5.12
5.13 5.09
5.11 5.07
5.10 5.05
5.10 5.05
5.10 5.04
5.10 5.03
5.10 5.03
5.10 5.03
5.10 5.03
5.10 5.03
5.10 5.04
5.10 5.04
5.11 5.05
5.11 5.06
5.11 5.07
5.11 5.08
5.12 5.09
5.12 5.09
5.12 5.09
5.12 5.08
5.12 5.07
5.11 5.06
5.11 5.05
5.10 5.03
5.10 5.02
5.09 5.01
5.09 4.99
5.08 4.98
5.08 4.97
5.07 4.96
5.07 4.96
5.07 4.95
5.07 4.95
5.07 4.94
5.06 4.94
5.06 4.94
5.06 4.94
5.07 4.95
5.07 4.95
5.07 4.95
5.07 4.96
5.07 4.96
5.07 4.96
5.08 4.97
5.08 4.97
5.08 4.98
5.07 4.99
5.03 5.04
5.01 5.16
5.04 5.33
5.12 5.41
5.29 5.43
5.52 5.41
5.61 5.31
5.53 5.30
5.34 5.17
5.24 4.85
5.27 4.72
5.20 4.86
5.19 4.94
5.17 5.03
5.12 5.09
5.12 5.08
5.12 5.08
5.11 5.09
5.11 5.08
5.10 5.06
5.10 5.05
5.09 5.03
5.07 4.97
5.04 4.91
5.04 4.90
5.04 4.90
5.04 4.91
5.05 4.91
5.05 4.92
5.06 4.92
5.06 4.93
5.07 4.94
5.07 4.93
5.07 4.92
5.08 4.92
5.08 4.91
5.09 4.91
5.09 4.90
5.09 4.90
5.09 4.91
5.09 4.91
5.10 4.92
5.10 4.93
5.10 4.94
5.10 4.95
5.11 4.97
5.10 4.97
5.10 4.99
5.10 5.00
5.10 5.02
5.11 5.04
5.11 5.05
5.12 5.07
5.12 5.09
5.12 5.10
5.13 5.11
5.14 5.13
5.14 5.14
5.14 5.14
5.14 5.14
5.14 5.13
5.14 5.12
5.13 5.12
5.13 5.12
5.13 5.12
5.13 5.13
5.13 5.13
5.12 5.12
5.12 5.11
5.12 5.10
5.10 5.08
5.09 5.06
5.08 5.03
5.08 4.99
5.08 4.98
5.09 5.00
5.10 5.00
5.10 5.02
5.11 5.04
5.12 5.03
5.12 5.01
5.12 5.00
5.12 5.00
5.12 4.98
5.11 4.97
5.12 4.95
5.11 4.95
5.11 4.95
5.11 4.95
5.11 4.95
5.11 4.95
5.11 4.95
5.11 4.95
5.11 4.96
5.10 4.96
5.10 4.95
5.10 4.96
5.11 4.97
5.10 4.98
5.10 4.97
5.10 4.97
5.10 4.97
5.10 4.98
5.10 4.99
5.10 5.00
5.10 5.00
5.10 5.01
5.10 5.02
5.10 5.02
5.09 5.02
5.07 5.02
5.06 5.01
5.06 5.01
5.06 4.99
5.05 4.98
5.05 4.99
5.05 4.99
5.06 5.00
5.08 5.03
5.09 5.03
5.10 5.00
5.10 5.00
5.10 4.99
5.10 4.98
5.10 4.97
5.10 4.95
5.10 4.93
5.09 4.93
5.09 4.92
5.09 4.92
5.09 4.92
5.09 4.93
5.09 4.93
5.09 4.93
5.10 4.93
5.09 4.93
5.09 4.93
5.10 4.93
5.09 4.93
5.10 4.95
5.10 4.96
5.10 4.96
5.10 4.95
5.09 4.96
5.09 4.97
5.09 4.98
5.09 4.99
5.08 4.99
5.08 4.98
5.08 4.97
5.09 4.95
5.09 4.94
5.08 4.94
5.07 4.93
5.05 4.92
5.05 4.95
5.06 4.95
5.07 4.97
5.09 4.99
5.10 4.99
5.10 4.99
5.10 4.98
5.10 4.97
5.10 4.96
5.10 4.95
5.10 4.95
5.10 4.95
5.10 4.94
5.09 4.94
5.08 4.96
5.01 5.03
4.95 5.13
4.98 5.26
5.08 5.32
5.31 5.33
5.58 5.27
5.70 5.26
5.59 5.27
5.30 5.37
5.12 5.09
5.18 4.62
5.12 4.58
5.10 4.60
5.13 4.65
5.15 4.82
5.13 4.92
5.11 4.94
5.11 4.94
5.11 4.94
5.11 4.94
5.10 4.93
5.08 4.91
5.06 4.89
5.06 4.88
5.05 4.90
5.06 4.91
5.06 4.91
5.06 4.91
5.07 4.93
5.08 4.94
5.09 4.93
5.08 4.92
5.09 4.91
5.09 4.91
5.08 4.91
5.09 4.90
5.09 4.90
5.09 4.90
5.09 4.91
5.09 4.91
5.10 4.91
5.10 4.91
5.11 4.91
5.11 4.91
5.11 4.92
5.11 4.93
5.11 4.93
5.12 4.93
5.12 4.95
5.12 4.97
5.13 4.99
5.13 5.01
5.14 5.03
5.15 5.04
5.15 5.06
5.16 5.07
5.17 5.09
5.18 5.10
5.20 5.11
5.21 5.12
5.20 5.11
5.18 5.10
5.18 5.10
5.17 5.11
5.17 5.12
5.17 5.13
5.18 5.12
5.18 5.14
5.18 5.14
5.17 5.12
5.17 5.09
5.17 5.07
5.17 5.07
5.16 5.05
5.16 5.05
5.16 5.04
5.15 5.03
5.15 5.03
5.15 5.03
5.15 5.03
5.15 5.02
5.14 5.01
5.14 5.01
5.14 5.01
5.14 5.00
5.14 5.00
5.14 4.99
5.14 5.00
5.14 5.00
5.13 5.00
5.12 4.99
5.12 4.99
5.12 4.97
5.11 4.96
5.10 4.95
5.10 4.94
5.08 4.94
5.07 4.94
5.06 4.92
5.06 4.92
5.06 4.92
5.06 4.91
5.06 4.93
5.07 4.96
5.08 4.97
5.09 4.99
5.10 5.01
5.11 5.01
5.11 5.00
5.11 5.00
5.12 4.98
5.12 4.95
5.12 4.94
5.12 4.92
5.13 4.93
5.12 4.94
5.12 4.93
5.12 4.91
5.12 4.91
5.12 4.90
5.12 4.89
5.12 4.89
5.11 4.89
5.11 4.89
5.11 4.89
5.11 4.91
5.11 4.91
5.11 4.89
5.10 4.87
5.10 4.87
5.10 4.87
5.11 4.86
5.09 4.87
5.08 4.87
5.08 4.87
5.08 4.86
5.06 4.85
5.06 4.85
5.06 4.88
5.06 4.91
5.07 4.93
5.09 4.97
5.10 5.00
5.12 5.02
5.11 5.01
5.10 5.00
5.06 5.05
4.99 5.17
5.00 5.32
5.08 5.38
5.26 5.38
5.51 5.31
5.69 5.25
5.67 5.18
5.45 5.33
5.21 5.24
5.19 4.73
5.18 4.55
5.13 4.56
5.16 4.59
5.18 4.74
5.17 4.86
5.15 4.88
5.14 4.87
5.13 4.85
5.12 4.83
5.11 4.83
5.11 4.81
5.10 4.79
5.09 4.76
5.08 4.77
5.07 4.76
5.07 4.76
5.08 4.82
5.10 4.88
5.11 4.90
5.11 4.90
5.11 4.90
5.12 4.89
5.12 4.90
5.12 4.90
5.12 4.89
5.12 4.88
5.12 4.88
5.13 4.89
5.13 4.89
5.13 4.89
5.13 4.89
5.13 4.90
5.13 4.91
5.13 4.92
5.13 4.94
5.13 4.96
5.14 4.98
5.14 4.98
5.14 5.00
5.15 5.03
5.15 5.05
5.15 5.06
5.15 5.08
5.16 5.09
5.16 5.09
5.16 5.10
5.17 5.11
5.17 5.11
5.17 5.10
5.15 5.10
5.14 5.09
5.13 5.08
5.12 5.06
5.12 5.04
5.11 5.02
5.11 5.02
5.11 5.03
5.11 5.02
5.12 5.02
5.13 5.03
5.13 5.02
5.13 5.01
5.13 4.99
5.13 4.97
5.13 4.96
5.13 4.95
5.13 4.94
5.13 4.94
5.13 4.95
5.13 4.94
5.13 4.94
5.13 4.94
5.14 4.93
5.13 4.93
5.13 4.92
5.13 4.93
5.13 4.94
5.13 4.93
5.12 4.93
5.13 4.94
5.13 4.93
5.13 4.93
5.13 4.93
5.12 4.92
5.11 4.92
5.10 4.91
5.09 4.91
5.08 4.91
5.08 4.91
5.08 4.92
5.08 4.95
5.09 4.96
5.10 4.99
5.12 5.02
5.12 5.03
5.12 5.03
5.12 5.02
5.12 5.02
5.12 5.02
5.12 5.02
5.12 5.01
5.12 4.99
5.12 4.97
5.12 4.95
5.11 4.93
5.11 4.91
5.10 4.90
5.10 4.88
5.10 4.88
5.10 4.88
5.10 4.88
5.10 4.87
5.10 4.87
5.09 4.87
5.09 4.86
5.09 4.86
5.09 4.85
5.09 4.85
5.08 4.86
5.07 4.87
5.06 4.88
5.02 4.91
4.94 4.98
4.90 5.10
4.93 5.23
5.08 5.34
5.34 5.37
5.61 5.34
5.68 5.28
5.52 5.33
5.27 5.28
5.18 4.79
5.22 4.52
5.14 4.55
5.15 4.58
5.17 4.73
5.15 4.86
5.13 4.87
5.12 4.86
5.11 4.85
5.10 4.85
5.10 4.86
5.10 4.86
5.09 4.85
5.09 4.85
5.09 4.86
5.09 4.86
5.08 4.85
5.08 4.83
5.08 4.82
5.08 4.83
5.09 4.85
5.10 4.87
5.10 4.88
5.09 4.88
5.09 4.88
5.10 4.90
5.10 4.93
5.10 4.93
5.10 4.94
5.11 4.96
5.12 4.96
5.13 4.96
5.13 4.96
5.13 4.96
5.14 4.97
5.14 4.98
5.14 4.98
5.14 4.99
5.14 5.00
5.14 5.01
5.14 5.01
5.13 5.02
5.13 5.02
5.13 5.03
5.13 5.03
5.13 5.04
5.13 5.04
5.13 5.04
5.13 5.03
5.13 5.03
5.13 5.02
5.13 5.02
5.12 5.02
5.11 5.01
5.10 4.99
5.10 4.99
5.10 4.98
5.10 4.96
5.10 4.96
5.10 4.98
5.10 4.99
5.10 5.01
5.09 5.02
5.10 5.02
5.10 5.02
5.10 5.02
5.10 5.03
5.10 5.03
5.11 5.01
5.11 5.00
5.11 4.99
5.11 4.98
5.11 4.97
5.11 4.97
5.11 4.97
5.11 4.97
5.11 4.97
5.11 4.97
5.11 4.97
5.11 4.97
5.11 4.97
5.11 4.97
5.11 4.97
5.11 4.97
5.11 4.97
5.11 4.97
5.11 4.97
5.11 4.97
5.11 4.96
5.10 4.95
5.10 4.95
5.10 4.94
5.10 4.94
5.09 4.93
5.08 4.91
5.08 4.90
5.08 4.91
5.08 4.93
5.07 4.95
5.09 4.98
5.10 5.01
5.11 5.01
5.12 5.00
5.12 4.99
5.12 4.97
5.12 4.97
5.12 4.96
5.12 4.95
5.11 4.95
5.11 4.94
5.10 4.93
5.10 4.92
5.10 4.93
5.09 4.93
5.09 4.92
5.10 4.91
5.10 4.91
5.10 4.91
5.10 4.92
5.09 4.92
5.09 4.91
5.09 4.91
5.09 4.91
5.09 4.91
5.09 4.91
5.08 4.92
5.08 4.92
5.08 4.93
5.08 4.93
5.07 4.93
5.07 4.92
5.07 4.93
5.06 4.93
5.06 4.95
5.06 4.97
5.07 4.97
5.07 4.99
5.08 5.00
5.09 5.02
5.09 5.03
5.09 5.02
5.09 5.01
5.10 5.01
5.10 4.99
5.10 4.97
5.10 4.95
5.10 4.95
5.10 4.94
5.10 4.93
5.10 4.93
5.10 4.92
5.10 4.92
5.10 4.92
5.09 4.92
5.09 4.91
5.09 4.91
5.09 4.91
5.08 4.91
5.09 4.90
5.09 4.90
5.08 4.90
5.08 4.90
5.08 4.91
5.09 4.93
5.09 4.95
5.10 4.98
5.10 4.99
5.10 5.00
5.09 5.00
5.10 5.01
5.10 5.01
5.09 5.00
5.09 4.99
5.08 4.98
5.08 4.99
5.07 5.03
5.01 5.11
4.96 5.25
4.99 5.41
5.10 5.49
5.31 5.48
5.59 5.41
5.75 5.36
5.67 5.29
5.39 5.35
5.19 5.04
5.23 4.53
5.17 4.49
5.14 4.51
5.16 4.58
5.17 4.76
5.15 4.85
5.12 4.85
5.11 4.83
5.11 4.83
5.10 4.83
5.09 4.82
5.09 4.82
5.08 4.83
5.08 4.83
5.08 4.84
5.07 4.84
5.06 4.85
5.06 4.84
5.06 4.84
5.07 4.85
5.08 4.87
5.08 4.88
5.09 4.89
5.09 4.89
5.08 4.91
5.08 4.92
5.08 4.93
5.08 4.94
5.08 4.95
5.08 4.96
5.09 4.97
5.10 5.00
5.11 5.02
5.12 5.03
5.13 5.05
5.15 5.07
5.16 5.08
5.16 5.07
5.16 5.06
5.17 5.06
5.18 5.06
5.18 5.05
5.18 5.05
5.18 5.04
5.18 5.04
5.18 5.05
5.19 5.06
5.19 5.07
5.19 5.08
5.20 5.09
5.19 5.09
5.19 5.09
5.19 5.09
5.18 5.09
5.17 5.08
5.16 5.08
5.16 5.07
5.14 5.07
5.13 5.07
5.12 5.07
5.11 5.07
5.11 5.06
5.11 5.06
5.11 5.07
5.11 5.07
5.11 5.07
5.11 5.07
5.11 5.05
5.10 5.04
5.11 5.05
5.12 5.07
5.13 5.08
5.14 5.09
5.15 5.09
5.15 5.07
5.15 5.06
5.16 5.04
5.16 5.03
5.16 5.01
5.16 4.99
5.16 4.97
5.15 4.97
5.11 4.99
5.06 5.07
5.09 5.25
5.17 5.35
5.35 5.39
5.59 5.35
5.74 5.22
5.69 5.18
5.48 4.97
5.34 4.64
5.33 4.52
5.24 4.68
5.20 4.78
5.14 4.91
5.10 4.93
5.08 4.91
5.07 4.91
5.06 4.92
5.06 4.93
5.06 4.94
5.06 4.94
5.05 4.94
5.06 4.95
5.06 4.95
5.07 4.96
5.06 4.96
5.06 4.96
5.06 4.95
5.06 4.95
5.08 4.97
5.09 4.98
5.10 4.98
5.11 5.00
5.12 5.02
5.13 5.01
5.13 4.99
5.13 4.99
5.14 4.99
5.14 4.99
5.14 4.98
5.14 4.98
5.14 4.98
5.14 4.97
5.14 4.97
5.13 4.97
5.14 4.97
5.14 4.96
5.13 4.95
5.11 4.96
5.11 4.98
5.10 5.00
5.10 5.04
5.10 5.06
5.10 5.09
5.10 5.11
5.10 5.13
5.11 5.14
5.11 5.16
5.11 5.17
5.11 5.17
5.11 5.18
5.11 5.18
5.11 5.17
5.11 5.15
5.10 5.13
5.10 5.12
5.11 5.13
5.12 5.15
5.13 5.15
5.14 5.16
5.15 5.14
5.15 5.13
5.15 5.11
5.14 5.09
5.14 5.06
5.14 5.05
5.14 5.03
5.14 5.02
5.14 5.00
5.14 4.98
5.13 4.97
5.13 4.94
5.12 4.92
5.11 4.89
5.11 4.87
5.11 4.87
5.12 4.87
5.11 4.87
5.10 4.86
5.09 4.87
5.08 4.88
5.08 4.89
5.07 4.89
5.06 4.89
5.06 4.90
5.06 4.94
5.07 4.96
5.08 4.97
5.08 5.01
5.09 5.04
5.10 5.06
5.10 5.07
5.11 5.08
5.11 5.08
5.11 5.06
5.10 5.06
5.10 5.06
5.11 5.06
5.10 5.06
5.07 5.05
5.00 5.11
4.96 5.22
4.99 5.31
5.13 5.33
5.37 5.33
5.62 5.28
5.68 5.21
5.51 5.26
5.22 5.29
5.12 4.86
5.18 4.50
5.11 4.52
5.12 4.53
5.14 4.63
5.13 4.77
5.10 4.82
5.08 4.85
5.09 4.87
5.10 4.89
5.10 4.92
5.09 4.94
5.10 4.95
5.10 4.95
5.10 4.94
5.10 4.94
5.11 4.94
5.11 4.95
5.11 4.96
5.11 4.97
5.11 4.97
5.11 4.97
5.11 4.97
5.11 4.96
5.11 4.96
5.11 4.96
5.11 4.96
5.11 4.95
5.12 4.96
5.12 4.97
5.12 4.97
5.12 4.97
5.12 4.98
5.13 4.99
5.12 5.01
5.13 5.01
5.13 5.01
5.12 5.00
5.12 5.00
5.12 4.98
5.11 4.97
5.11 4.98
5.11 5.01
5.12 5.04
5.14 5.08
5.16 5.11
5.17 5.15
5.18 5.17
5.18 5.17
5.17 5.14
5.16 5.12
5.16 5.11
5.16 5.10
5.16 5.09
5.15 5.09
5.15 5.08
5.15 5.07
5.14 5.06
5.14 5.06
5.13 5.05
5.13 5.06
5.12 5.06
5.12 5.05
5.11 5.05
5.11 5.03
5.11 5.03
5.11 5.03
5.11 5.02
5.11 5.01
5.10 5.01
5.10 5.01
5.11 4.99
5.11 4.99
5.11 5.00
5.11 5.00
5.10 4.99
5.10 4.98
5.09 4.96
5.09 4.96
5.09 4.97
5.10 5.01
5.11 5.03
5.12 5.05
5.14 5.03
5.14 5.02
5.14 5.02
5.14 5.01
5.12 5.00
5.12 4.99
5.11 4.99
5.11 4.99
5.11 4.99
5.11 4.99
5.11 4.99
5.11 4.99
5.11 4.98
5.11 4.99
5.10 4.99
5.10 4.99
5.09 4.99
5.09 4.99
5.08 4.98
5.09 4.99
5.08 4.99
5.08 4.99
5.08 4.98
5.07 4.96
5.07 4.95
5.07 4.96
5.08 4.98
5.08 4.99
5.09 5.00
5.10 5.01
5.11 5.00
5.12 5.00
5.12 5.01
5.12 5.01
5.12 4.99
5.12 4.97
5.12 4.96
5.11 4.94
5.10 4.94
5.05 4.99
4.97 5.10
4.97 5.23
5.03 5.30
5.22 5.32
5.49 5.29
5.68 5.32
5.66 5.27
5.41 5.38
5.17 5.24
5.17 4.72
5.15 4.64
5.10 4.63
5.11 4.66
5.12 4.82
5.10 4.92
5.08 4.93
5.07 4.94
5.07 4.95
5.07 4.96
5.08 5.00
5.10 5.03
5.10 5.03
5.10 5.04
5.10 5.03
5.10 5.02
5.10 5.00
5.11 4.98
5.11 4.97
5.11 4.96
5.12 4.94
5.12 4.92
5.12 4.92
5.12 4.92
5.12 4.91
5.12 4.90
5.12 4.90
5.13 4.91
5.13 4.91
5.13 4.91
5.13 4.91
5.13 4.92
5.13 4.95
5.14 4.98
5.13 5.01
5.14 5.02
5.13 5.03
5.14 5.04
5.14 5.07
5.14 5.08
5.13 5.08
5.12 5.09
5.12 5.11
5.12 5.12
5.12 5.12
5.12 5.12
5.12 5.14
5.13 5.17
5.13 5.18
5.14 5.20
5.16 5.22
5.16 5.25
5.16 5.23
5.16 5.20
5.16 5.17
5.15 5.14
5.15 5.12
5.14 5.10
5.14 5.09
5.13 5.06
5.12 5.05
5.12 5.04
5.12 5.02
5.11 5.00
5.12 4.98
5.11 4.97
5.11 4.97
5.11 4.96
5.11 4.96
5.11 4.96
5.12 4.97
5.12 4.98
5.12 5.00
5.12 5.01
5.12 5.01
5.11 5.01
5.10 5.02
5.09 5.06
5.05 5.12
5.03 5.25
5.07 5.42
5.16 5.52
5.36 5.53
5.60 5.49
5.70 5.37
5.60 5.31
5.39 5.06
5.33 4.75
5.33 4.77
5.26 4.96
5.23 5.04
5.19 5.11
5.16 5.05
5.15 5.01
5.14 5.00
5.12 4.98
5.12 4.96
5.11 4.94
5.11 4.92
5.11 4.92
5.11 4.91
5.10 4.90
5.10 4.89
5.09 4.89
5.09 4.89
5.09 4.89
5.09 4.91
5.10 4.92
5.10 4.92
5.09 4.92
5.07 4.93
5.08 4.95
5.08 4.96
5.08 4.98
5.07 5.00
5.07 5.00
5.07 5.01
5.07 5.03
5.07 5.03
5.07 5.05
5.07 5.06
5.07 5.07
5.07 5.08
5.07 5.08
5.07 5.09
5.07 5.10
5.08 5.12
5.09 5.15
5.10 5.17
5.11 5.19
5.13 5.21
5.14 5.22
5.15 5.22
5.15 5.23
5.16 5.22
5.16 5.22
5.16 5.21
5.16 5.20
5.16 5.18
5.16 5.16
5.15 5.15
5.15 5.12
5.14 5.10
5.14 5.09
5.13 5.08
5.13 5.07
5.12 5.06
5.12 5.05
5.12 5.06
5.11 5.05
5.09 5.04
5.09 5.04
5.08 5.04
5.08 5.04
5.08 5.03
5.07 5.02
5.07 5.02
5.07 5.01
5.06 5.00
5.06 4.99
5.05 4.97
5.05 4.97
5.05 4.99
5.05 5.00
5.08 5.03
5.10 5.06
5.11 5.07
5.11 5.06
5.12 5.06
5.12 5.05
5.13 5.05
5.13 5.04
5.13 5.04
5.13 5.04
5.12 5.04
5.12 5.04
5.12 5.03
5.12 5.03
5.11 5.03
5.11 5.02
5.11 5.03
5.11 5.03
5.10 5.03
5.10 5.03
5.09 5.02
5.10 5.02
5.10 5.03
5.09 5.03
5.09 5.04
5.06 5.03
5.01 5.07
4.94 5.14
4.91 5.25
4.97 5.31
5.13 5.32
5.39 5.30
5.60 5.34
5.60 5.30
5.37 5.40
5.15 5.32
5.15 4.79
5.16 4.62
5.10 4.63
5.12 4.66
5.15 4.81
5.14 4.95
5.12 4.97
5.12 4.95
5.11 4.94
5.11 4.94
5.11 4.94
5.11 4.94
5.11 4.94
5.11 4.94
5.11 4.95
5.12 4.96
5.11 4.96
5.10 4.96
5.10 4.96
5.10 4.96
5.09 4.95
5.10 4.95
5.10 4.94
5.10 4.94
5.10 4.94
5.10 4.94
5.10 4.95
5.09 4.96
5.08 4.97
5.08 4.97
5.08 4.98
5.08 4.99
5.08 5.00
5.08 5.02
5.08 5.03
5.09 5.04
5.10 5.07
5.11 5.10
5.12 5.12
5.13 5.13
5.14 5.15
5.15 5.18
5.15 5.18
5.16 5.18
5.17 5.19
5.18 5.20
5.18 5.19
5.18 5.20
5.18 5.19
5.18 5.19
5.18 5.18
5.18 5.17
5.17 5.16
5.17 5.16
5.16 5.15
5.15 5.13
5.14 5.10
5.13 5.07
5.13 5.05
5.12 5.04
5.12 5.03
5.11 5.02
5.10 5.01
5.09 5.00
5.09 5.00
5.09 5.00
5.09 5.01
5.08 5.00
5.08 5.00
5.08 5.00
5.08 4.99
5.08 4.99
5.08 4.99
5.07 4.99
5.08 5.00
5.09 5.03
5.11 5.05
5.12 5.08
5.13 5.11
5.13 5.11
5.13 5.12
5.14 5.10
5.14 5.09
5.14 5.10
5.15 5.10
5.14 5.10
5.14 5.10
5.13 5.10
5.12 5.08
5.12 5.07
5.12 5.05
5.11 5.04
5.11 5.03
5.11 5.02
5.11 5.00
5.10 4.99
5.09 4.99
5.08 4.99
5.08 5.00
5.08 5.00
5.09 5.00
5.09 5.00
5.09 4.99
5.09 4.98
5.08 4.97
5.08 4.97
5.08 4.97
5.07 4.96
5.07 4.96
5.06 4.95
5.06 4.96
5.07 5.00
5.08 5.03
5.11 5.06
5.12 5.08
5.12 5.07
5.12 5.06
5.12 5.06
5.12 5.06
5.13 5.04
5.14 5.03
5.14 5.03
5.13 5.03
5.13 5.03
5.13 5.04
5.12 5.04
5.12 5.04
5.12 5.05
5.12 5.04
5.12 5.03
5.11 5.03
5.10 5.03
5.09 5.05
5.09 5.05
5.09 5.05
5.08 5.05
5.08 5.04
5.08 5.04
5.07 5.04
5.08 5.03
5.07 5.01
5.07 5.00
5.07 5.00
5.08 5.01
5.08 5.00
5.07 4.99
5.06 4.97
5.05 4.95
5.05 4.97
5.05 4.99
5.07 5.02
5.10 5.06
5.12 5.07
5.12 5.06
5.13 5.04
5.13 5.03
5.13 5.03
5.13 5.04
5.13 5.04
5.14 5.04
5.14 5.04
5.13 5.04
5.13 5.03
5.12 5.02
5.12 5.03
5.11 5.03
5.06 5.07
4.99 5.17
4.98 5.31
5.05 5.41
5.23 5.45
5.50 5.40
5.70 5.41
5.65 5.35
5.41 5.42
5.16 5.17
5.17 4.66
5.13 4.57
5.07 4.58
5.08 4.62
5.09 4.79
5.08 4.92
5.06 4.95
5.07 4.97
5.09 5.02
5.10 5.03
5.11 5.03
5.11 5.02
5.11 5.02
5.11 5.00
5.11 5.00
5.12 5.00
5.13 5.00
5.14 5.01
5.14 5.00
5.14 4.99
5.15 4.98
5.15 4.98
5.14 4.97
5.14 4.97
5.13 4.97
5.13 4.97
5.13 4.98
5.12 4.99
5.12 4.98
5.13 4.97
5.13 4.96
5.14 4.97
5.11 4.96
5.10 4.96
5.10 4.97
5.10 5.00
5.11 5.04
5.11 5.08
5.12 5.11
5.12 5.12
5.12 5.14
5.13 5.14
5.13 5.15
5.14 5.16
5.14 5.17
5.14 5.17
5.14 5.18
5.15 5.19
5.15 5.19
5.16 5.20
5.17 5.20
5.17 5.20
5.17 5.19
5.17 5.18
5.16 5.16
5.16 5.15
5.16 5.13
5.15 5.12
5.15 5.11
5.14 5.08
5.14 5.06
5.14 5.06
5.14 5.04
5.14 5.04
5.14 5.05
5.14 5.06
5.15 5.08
5.15 5.08
5.15 5.07
5.14 5.06
5.14 5.05
5.13 5.06
5.13 5.06
5.12 5.07
5.12 5.07
5.11 5.07
5.09 5.10
5.06 5.18
5.06 5.34
5.13 5.44
5.27 5.54
5.50 5.49
5.70 5.46
5.68 5.35
5.46 5.28
5.30 4.95
5.31 4.63
5.22 4.74
5.19 4.80
5.16 4.92
5.12 4.97
5.09 4.93
5.07 4.91
5.06 4.91
5.06 4.94
5.07 4.97
5.08 5.01
5.09 5.03
5.09 5.03
5.09 5.03
5.09 5.02
5.10 5.00
5.10 4.99
5.10 4.98
5.11 4.96
5.11 4.95
5.11 4.94
5.11 4.94
5.10 4.95
5.10 4.95
5.10 4.96
5.10 4.98
5.10 4.98
5.11 4.99
5.10 4.99
5.10 5.00
5.10 5.00
5.10 5.00
5.09 5.01
5.09 5.02
5.08 5.02
5.08 5.02
5.08 5.03
5.08 5.04
5.08 5.05
5.07 5.05
5.07 5.06
5.07 5.07
5.07 5.08
5.06 5.09
5.06 5.11
5.07 5.16
5.09 5.21
5.10 5.24
5.11 5.26
5.12 5.27
5.13 5.26
5.14 5.25
5.14 5.22
5.14 5.19
5.15 5.17
5.15 5.14
5.14 5.12
5.13 5.10
5.12 5.09
5.12 5.08
5.12 5.07
5.11 5.05
5.11 5.05
5.11 5.04
5.11 5.04
5.11 5.03
5.11 5.03
5.10 5.02
5.11 5.01
5.11 5.01
5.11 5.01
5.11 4.98
5.11 4.97
5.11 4.97
5.10 4.96
5.10 4.96
5.10 4.97
5.10 4.97
5.10 4.97
5.10 4.98
5.10 4.99
5.09 5.01
5.05 5.06
5.01 5.18
5.03 5.38
5.09 5.49
5.25 5.53
5.46 5.47
5.63 5.35
5.61 5.29
5.38 5.39
5.13 5.30
5.14 4.79
5.14 4.64
5.09 4.67
5.11 4.73
5.13 4.88
5.12 4.98
5.10 4.97
5.10 4.96
5.10 4.95
5.09 4.92
5.09 4.91
5.09 4.90
5.09 4.89
5.09 4.90
5.08 4.93
5.08 4.93
5.08 4.93
5.08 4.92
5.08 4.92
5.08 4.92
5.08 4.92
5.08 4.92
5.08 4.92
5.09 4.91
5.09 4.92
5.10 4.93
5.10 4.94
5.11 4.96
5.11 4.97
5.11 4.99
5.11 5.00
5.12 5.01
5.12 5.02
5.12 5.04
5.13 5.06
5.12 5.07
5.12 5.08
5.11 5.09
5.10 5.08
5.10 5.09
5.11 5.09
5.11 5.09
5.12 5.10
5.13 5.11
5.13 5.14
5.14 5.15
5.14 5.15
5.14 5.15
5.14 5.14
5.14 5.13
5.13 5.12
5.13 5.10
5.12 5.09
5.11 5.09
5.11 5.07
5.10 5.06
5.10 5.04
5.10 5.04
5.10 5.03
5.09 5.02
5.09 5.01
5.09 5.01
5.08 5.00
5.09 4.99
5.10 4.98
5.10 4.98
5.10 4.98
5.10 4.99
5.10 5.02
5.10 5.05
5.10 5.04
5.11 5.04
5.11 5.06
5.11 5.07
5.10 5.06
5.08 5.04
5.08 5.04
5.08 5.03
5.07 5.03
5.07 5.01
5.07 5.01
5.07 5.01
5.07 5.00
5.07 4.99
5.07 4.97
5.07 4.96
5.06 4.95
5.06 4.95
5.06 4.94
5.06 4.94
5.07 4.94
5.07 4.93
5.07 4.93
5.07 4.93
5.07 4.93
5.07 4.93
5.07 4.92
5.07 4.92
5.07 4.95
5.07 4.97
5.07 4.97
5.07 4.96
5.07 4.97
5.07 4.98
5.07 4.99
5.07 4.99
5.07 4.99
5.08 4.99
5.08 5.00
5.09 5.01
5.09 5.03
5.10 5.03
5.10 5.02
5.11 5.01
5.11 5.00
5.11 5.00
5.10 4.99
5.08 4.99
5.07 4.97
5.05 4.95
5.05 4.95
5.05 4.96
5.04 4.96
5.04 4.95
5.04 4.95
5.04 4.95
5.04 4.95
5.04 4.94
5.05 4.96
5.05 4.98
5.06 4.97
5.05 4.97
5.06 4.98
5.06 4.98
5.06 4.96
5.06 4.97
5.06 4.97
5.07 4.96
5.08 4.95
5.08 4.96
5.09 4.98
5.09 4.99
5.10 5.00
5.10 5.00
5.10 4.99
5.10 4.98
5.10 4.98
5.10 4.98
5.09 4.98
5.09 4.99
5.09 4.97
5.08 4.95
5.07 4.94
5.07 4.93
5.07 4.93
5.07 4.93
5.06 4.94
5.06 4.96
5.06 4.97
5.06 4.96
5.05 4.96
5.05 4.97
5.05 4.96
5.05 4.96
5.03 4.97
4.98 5.03
4.92 5.14
4.93 5.27
5.02 5.35
5.22 5.37
5.49 5.31
5.69 5.30
5.65 5.25
5.39 5.33
5.16 5.15
5.17 4.61
5.14 4.48
5.09 4.50
5.10 4.53
5.11 4.69
5.11 4.82
5.09 4.86
5.09 4.87
5.09 4.89
5.09 4.91
5.10 4.93
5.10 4.95
5.09 4.96
5.09 4.97
5.10 4.97
5.10 4.95
5.10 4.94
5.09 4.93
5.08 4.92
5.08 4.91
5.07 4.90
5.07 4.89
5.07 4.88
5.06 4.87
5.06 4.86
5.06 4.86
5.06 4.87
5.07 4.88
5.07 4.88
5.08 4.88
5.08 4.88
5.08 4.89
5.08 4.92
5.09 4.96
5.10 4.98
5.10 4.99
5.11 5.01
5.11 5.03
5.12 5.03
5.12 5.03
5.12 5.04
5.12 5.06
5.13 5.06
5.13 5.06
5.13 5.07
5.13 5.08
5.14 5.08
5.14 5.08
5.15 5.10
5.15 5.11
5.17 5.13
5.17 5.14
5.17 5.12
5.17 5.10
5.16 5.10
5.16 5.09
5.15 5.06
5.12 5.04
5.11 5.02
5.11 5.03
5.11 5.06
5.12 5.05
5.12 5.03
5.11 5.02
5.11 5.02
5.11 5.02
5.11 5.02
5.11 5.01
5.11 5.01
5.11 5.00
5.11 5.00
5.10 4.99
5.11 4.99
5.11 4.99
5.11 4.99
5.12 4.98
5.11 4.98
5.11 4.99
5.12 4.98
5.11 4.97
5.11 4.97
5.11 4.97
5.11 4.98
5.11 4.96
5.10 4.94
5.10 4.94
5.09 4.96
5.10 4.99
5.10 5.01
5.10 5.03
5.11 5.03
5.11 5.06
5.11 5.07
5.12 5.07
5.12 5.07
5.12 5.06
5.12 5.04
5.12 5.05
5.10 5.04
5.09 5.02
5.08 5.00
5.07 5.01
5.07 5.00
5.07 4.99
5.07 4.99
5.07 4.99
5.07 4.98
5.07 4.99
5.07 4.99
5.07 4.99
5.06 4.98
5.06 4.96
5.06 4.96
5.06 4.97
5.07 4.97
5.08 4.95
5.09 4.95
5.09 4.94
5.09 4.93
5.09 4.92
5.10 4.91
5.09 4.91
5.10 4.91
5.10 4.91
5.10 4.90
5.10 4.89
5.10 4.87
5.10 4.87
5.10 4.87
5.10 4.89
5.11 4.91
5.10 4.93
5.10 4.94
5.10 4.94
5.09 4.94
5.08 4.95
5.07 4.96
5.05 4.97
4.99 5.02
4.92 5.11
4.93 5.24
5.00 5.31
5.17 5.35
5.44 5.32
5.64 5.34
5.60 5.31
5.37 5.42
5.15 5.21
5.17 4.68
5.16 4.60
5.11 4.61
5.13 4.67
5.14 4.83
5.12 4.92
5.10 4.91
5.09 4.90
5.09 4.89
5.09 4.89
5.09 4.88
5.08 4.88
5.08 4.88
5.08 4.88
5.08 4.88
5.08 4.88
5.08 4.88
5.08 4.88
5.09 4.90
5.09 4.92
5.09 4.93
5.09 4.94
5.09 4.95
5.10 4.97
5.10 4.99
5.09 5.00
5.10 5.00
5.11 5.00
5.11 5.02
5.11 5.02
5.11 5.02
5.11 5.02
5.11 5.03
5.12 5.03
5.12 5.03
5.11 5.03
5.10 5.03
5.10 5.04
5.10 5.05
5.10 5.05
5.10 5.05
5.10 5.06
5.11 5.05
5.11 5.05
5.10 5.05
5.10 5.06
5.10 5.07
5.11 5.07
5.10 5.07
5.10 5.06
5.10 5.06
5.10 5.06
5.10 5.06
5.12 5.09
5.12 5.11
5.12 5.12
5.12 5.12
5.12 5.12
5.13 5.12
5.12 5.11
5.12 5.11
5.12 5.11
5.12 5.12
5.12 5.12
5.12 5.12
5.11 5.12
5.11 5.10
5.11 5.09
5.10 5.07
5.11 5.05
5.11 5.04
5.11 5.02
5.09 4.99
5.08 4.96
5.07 4.95
5.07 4.94
5.06 4.93
5.06 4.92
5.06 4.91
5.06 4.91
5.05 4.91
5.04 4.90
5.04 4.90
5.04 4.91
5.04 4.94
5.01 5.01
4.98 5.13
5.01 5.30
5.11 5.39
5.31 5.43
5.58 5.40
5.70 5.29
5.62 5.27
5.42 5.14
5.30 4.79
5.29 4.65
5.21 4.76
5.21 4.83
5.18 4.95
5.14 5.00
5.13 4.98
5.12 4.97
5.12 4.97
5.11 4.96
5.11 4.96
5.10 4.95
5.10 4.94
5.09 4.93
5.07 4.92
5.07 4.91
5.06 4.90
5.06 4.89
5.05 4.89
5.05 4.90
5.05 4.92
5.05 4.93
5.06 4.94
5.07 4.96
5.08 4.96
5.08 4.97
5.08 4.96
5.08 4.94
5.09 4.92
5.09 4.93
5.09 4.93
5.08 4.94
5.09 4.94
5.09 4.95
5.10 4.96
5.10 4.96
5.10 4.97
5.11 4.98
5.11 4.99
5.11 5.01
5.12 5.03
5.13 5.05
5.14 5.09
5.14 5.12
5.15 5.14
5.15 5.16
5.15 5.18
5.16 5.22
5.16 5.24
5.16 5.24
5.15 5.23
5.13 5.21
5.11 5.19
5.10 5.17
5.09 5.14
5.09 5.12
5.08 5.09
5.08 5.07
5.07 5.05
5.07 5.04
5.06 5.03
5.06 5.03
5.05 5.02
5.05 5.01
5.05 5.01
5.05 4.99
5.05 4.99
5.04 4.98
5.05 4.98
5.05 4.97
5.05 4.96
5.06 4.98
5.07 4.98
5.08 4.97
5.08 4.96
5.09 4.96
5.08 4.97
5.08 4.98
5.09 4.98
5.09 4.99
5.09 5.01
5.07 5.08
5.04 5.22
5.07 5.43
5.15 5.54
5.30 5.64
5.54 5.58
5.69 5.51
5.65 5.48
5.43 5.47
5.23 5.11
5.24 4.64
5.17 4.67
5.13 4.66
5.13 4.77
5.11 4.91
5.07 4.93
5.05 4.91
5.04 4.90
5.04 4.89
5.04 4.88
5.05 4.90
5.04 4.90
5.04 4.90
5.05 4.90
5.04 4.90
5.04 4.91
5.05 4.91
5.05 4.91
5.05 4.92
5.05 4.93
5.05 4.94
5.05 4.94
5.05 4.93
5.05 4.93
5.05 4.93
5.06 4.93
5.06 4.93
5.07 4.93
5.07 4.95
5.08 4.97
5.09 4.99
5.09 5.00
5.10 5.02
5.10 5.02
5.09 5.02
5.09 5.02
5.09 5.03
5.10 5.07
5.11 5.09
5.12 5.13
5.13 5.15
5.14 5.16
5.15 5.18
5.14 5.18
5.12 5.19
5.12 5.20
5.12 5.20
5.11 5.19
5.11 5.18
5.11 5.17
5.10 5.15
5.09 5.13
5.09 5.11
5.08 5.09
5.08 5.08
5.07 5.06
5.07 5.03
5.06 5.03
5.06 5.02
5.05 5.01
5.06 5.00
5.06 5.00
5.05 5.00
5.05 5.01
5.06 5.01
5.07 5.00
5.07 5.00
5.08 5.00
5.09 5.02
5.11 5.04
5.12 5.06
5.12 5.08
5.13 5.09
5.13 5.09
5.13 5.10
5.13 5.10
5.11 5.12
5.07 5.18
5.05 5.33
5.08 5.49
5.20 5.61
5.39 5.59
5.60 5.52
5.68 5.41
5.57 5.41
5.34 5.21
5.24 4.82
5.27 4.65
5.19 4.74
5.16 4.82
5.11 4.93
5.07 4.96
5.05 4.91
5.04 4.89
5.02 4.88
5.01 4.87
5.00 4.87
5.00 4.88
5.00 4.90
5.02 4.93
5.04 4.94
5.05 4.95
5.06 4.96
5.06 4.96
5.06 4.96
5.06 4.95
5.07 4.96
5.07 4.97
5.08 5.00
5.08 5.01
5.08 5.01
5.08 5.02
5.08 5.02
5.09 5.03
5.09 5.04
5.08 5.04
5.08 5.04
5.09 5.04
5.09 5.05
5.09 5.05
5.08 5.05
5.07 5.05
5.06 5.05
5.06 5.06
5.06 5.06
5.07 5.07
5.07 5.08
5.08 5.09
5.09 5.10
5.09 5.12
5.10 5.13
5.10 5.14
5.11 5.15
5.11 5.14
5.11 5.13
5.12 5.12
5.12 5.12
5.12 5.11
5.11 5.10
5.10 5.10
5.09 5.09
5.09 5.08
5.09 5.07
5.08 5.06
5.09 5.06
5.09 5.05
5.08 5.05
5.08 5.05
5.08 5.06
5.08 5.07
5.08 5.08
5.08 5.07
5.09 5.07
5.08 5.07
5.08 5.08
5.09 5.08
5.09 5.08
5.09 5.07
5.09 5.05
5.09 5.06
5.10 5.05
5.09 5.03
5.08 5.01
5.07 5.00
5.07 5.00
5.07 5.00
5.07 5.00
5.05 5.03
5.01 5.13
5.02 5.31
5.06 5.50
5.18 5.60
5.36 5.59
5.59 5.47
5.68 5.35
5.56 5.37
5.31 5.32
5.17 4.89
5.19 4.57
5.11 4.63
5.12 4.67
5.14 4.82
5.12 4.95
5.09 4.97
5.08 4.95
5.08 4.95
5.07 4.95
5.07 4.95
5.07 4.95
5.07 4.95
5.06 4.95
5.07 4.96
5.07 4.96
5.06 4.97
5.06 4.98
5.06 4.98
5.07 4.97
5.08 4.97
5.08 4.97
5.09 4.97
5.10 4.98
5.10 4.98
5.09 4.98
5.09 4.97
5.09 4.98
5.09 4.99
5.09 5.00
5.08 5.01
5.08 5.01
5.08 5.02
5.08 5.03
5.08 5.04
5.08 5.05
5.09 5.05
5.09 5.06
5.09 5.06
5.09 5.07
5.10 5.09
5.10 5.10
5.11 5.12
5.11 5.14
5.12 5.15
5.12 5.17
5.13 5.17
5.13 5.18
5.13 5.17
5.13 5.16
5.13 5.14
5.13 5.12
5.13 5.11
5.12 5.11
5.12 5.09
5.11 5.08
5.10 5.07
5.10 5.06
5.10 5.06
5.10 5.05
5.11 5.05
5.11 5.05
5.09 5.05
5.08 5.06
5.08 5.07
5.07 5.06
5.07 5.05
5.06 5.04
5.07 5.03
5.06 5.02
5.06 5.02
5.06 5.02
5.06 5.01
5.06 5.01
5.06 5.01
5.06 5.00
5.06 4.99
5.06 4.99
5.06 4.99
5.06 4.99
5.06 4.99
5.07 5.00
5.06 5.01
5.06 5.02
5.05 5.05
5.01 5.15
5.02 5.36
5.09 5.53
5.23 5.59
5.43 5.50
5.64 5.37
5.67 5.23
5.51 5.28
5.26 5.10
5.19 4.65
5.20 4.57
5.15 4.65
5.16 4.73
5.13 4.89
5.10 4.97
5.07 4.95
5.06 4.94
5.05 4.94
5.04 4.93
5.03 4.93
5.03 4.92
5.03 4.91
5.03 4.91
5.02 4.91
5.02 4.91
5.02 4.90
5.02 4.89
5.02 4.89
5.02 4.88
5.02 4.87
5.02 4.86
5.03 4.85
5.03 4.84
5.04 4.84
5.04 4.84
5.05 4.84
5.06 4.86
5.08 4.89
5.09 4.92
5.10 4.95
5.11 4.97
5.11 4.98
5.11 4.98
5.11 5.01
5.11 5.05
5.12 5.09
5.12 5.11
5.11 5.12
5.11 5.12
5.11 5.15
5.11 5.17
5.12 5.18
5.12 5.18
5.12 5.19
5.12 5.19
5.13 5.17
5.13 5.17
5.13 5.16
5.13 5.15
5.12 5.13
5.12 5.12
5.11 5.10
5.10 5.08
5.09 5.06
5.08 5.05
5.07 5.04
5.07 5.03
5.06 5.01
5.06 5.00
5.05 4.99
5.05 4.99
5.06 4.98
5.06 4.97
5.06 4.96
5.06 4.95
5.07 4.94
5.07 4.92
5.06 4.90
5.07 4.89
5.07 4.89
5.07 4.89
5.06 4.89
5.07 4.90
5.08 4.94
5.09 4.97
5.10 4.99
5.10 5.00
5.09 5.01
5.09 5.02
5.09 5.02
5.09 5.02
5.09 5.02
5.09 5.01
5.08 5.00
5.08 5.00
5.08 4.99
5.08 5.00
5.08 5.00
5.08 5.00
5.07 5.00
5.07 5.00
5.07 4.99
5.07 4.99
5.07 4.99
5.07 4.99
5.06 4.99
5.06 4.99
5.06 4.99
5.05 4.99
5.05 4.99
5.05 4.97
5.05 4.97
5.05 4.95
5.06 4.93
5.05 4.91
5.05 4.88
5.03 4.87
5.03 4.87
5.03 4.86
5.03 4.86
5.04 4.87
5.05 4.88
5.06 4.88
5.06 4.88
5.06 4.90
5.05 4.89
5.05 4.89
5.05 4.90
5.06 4.93
5.06 4.96
5.06 5.00
5.07 5.00
5.07 4.99
5.07 4.99
5.07 4.98
5.07 4.98
5.07 4.98
5.07 4.98
5.07 4.98
5.06 4.98
5.06 4.98
5.06 4.97
5.06 4.96
5.06 4.96
5.06 4.98
5.06 4.99
5.06 4.98
5.07 4.98
5.06 4.97
5.06 4.99
5.00 5.05
4.94 5.14
4.93 5.25
5.01 5.33
5.20 5.34
5.47 5.31
5.66 5.32
5.62 5.25
5.37 5.35
5.14 5.14
5.15 4.60
5.12 4.48
5.07 4.49
5.09 4.53
5.10 4.70
5.08 4.85
5.06 4.90
5.05 4.90
5.05 4.92
5.04 4.92
5.04 4.93
5.04 4.93
5.04 4.93
5.04 4.92
5.04 4.93
5.04 4.92
5.04 4.91
5.04 4.90
5.05 4.89
5.05 4.90
5.05 4.91
5.05 4.90
5.04 4.90
5.04 4.88
5.05 4.88
5.05 4.88
5.05 4.88
5.06 4.88
5.06 4.89
5.06 4.90
5.06 4.90
5.07 4.90
5.07 4.91
5.08 4.92
5.08 4.93
5.08 4.94
5.09 4.92
5.10 4.93
5.11 4.96
5.12 4.98
5.12 5.01
5.12 5.03
5.12 5.04
5.12 5.05
5.13 5.08
5.13 5.09
5.13 5.10
5.14 5.11
5.15 5.13
5.15 5.14
5.15 5.14
5.15 5.14
5.15 5.14
5.15 5.13
5.15 5.12
5.15 5.11
5.14 5.10
5.13 5.07
5.12 5.04
5.11 5.02
5.10 5.00
5.10 4.99
5.09 4.99
5.08 4.99
5.08 4.99
5.08 4.99
5.08 4.99
5.08 5.00
5.08 5.01
5.08 5.00
5.09 5.00
5.10 4.99
5.10 4.99
5.09 4.98
5.10 4.98
5.10 4.99
5.11 5.00
5.11 4.99
5.11 4.97
5.11 4.97
5.11 4.98
5.10 4.97
5.10 4.96
5.10 4.96
5.09 4.95
5.09 4.95
5.09 4.95
5.09 4.96
5.09 4.97
5.09 4.97
5.09 4.97
5.09 4.98
5.07 4.98
5.04 4.99
4.99 5.09
4.99 5.31
5.05 5.43
5.19 5.47
5.42 5.37
5.59 5.29
5.56 5.34
5.35 5.38
5.18 5.03
5.19 4.61
5.19 4.64
5.16 4.72
5.18 4.81
5.17 4.94
5.13 4.96
5.12 4.94
5.11 4.94
5.11 4.92
5.10 4.91
5.10 4.91
5.10 4.92
5.10 4.91
5.09 4.89
5.09 4.89
5.09 4.90
5.09 4.90
5.08 4.90
5.08 4.89
5.08 4.88
5.08 4.87
5.08 4.87
5.08 4.88
5.08 4.88
5.07 4.89
5.07 4.89
5.08 4.91
5.08 4.92
5.07 4.92
5.07 4.91
5.07 4.90
5.08 4.90
5.09 4.93
5.10 4.98
5.12 5.02
5.13 5.06
5.12 5.07
5.11 5.09
5.11 5.11
5.12 5.13
5.13 5.14
5.13 5.15
5.13 5.13
5.13 5.14
5.14 5.15
5.14 5.17
5.14 5.17
5.13 5.16
5.13 5.15
5.12 5.13
5.12 5.12
5.11 5.11
5.11 5.09
5.10 5.06
5.09 5.04
5.09 5.02
5.08 5.01
5.08 4.99
5.07 4.97
5.07 4.93
5.06 4.90
5.07 4.91
5.07 4.93
5.08 4.94
5.08 4.95
5.08 4.97
5.08 4.99
5.09 4.99
5.09 4.99
5.09 4.99
5.09 4.99
5.09 4.97
5.09 4.96
5.09 4.94
5.09 4.93
5.09 4.91
5.08 4.90
5.08 4.91
5.08 4.92
5.08 4.93
5.08 4.95
5.08 4.95
5.08 4.95
5.07 4.95
5.07 4.96
5.07 4.96
5.07 4.96
5.07 4.97
5.07 4.99
5.07 5.00
5.07 5.00
5.07 5.00
5.07 5.00
5.07 5.02
5.06 5.01
5.06 4.99
5.06 5.00
5.06 5.01
5.07 5.01
5.07 5.00
5.08 4.99
5.09 4.97
5.09 4.96
5.10 4.97
5.10 4.97
5.10 4.95
5.09 4.92
5.09 4.91
5.09 4.91
5.09 4.91
5.09 4.89
5.09 4.89
5.09 4.92
5.09 4.94
5.09 4.96
5.08 4.96
5.08 4.97
5.08 4.98
5.08 4.99
5.08 4.98
5.08 4.99
5.07 4.99
5.07 4.99
5.07 5.00
5.07 5.00
5.07 5.00
5.07 5.00
5.07 5.00
5.07 4.98
5.07 4.97
5.06 4.96
5.06 4.96
5.06 4.95
5.06 4.95
5.04 4.98
4.97 5.07
4.92 5.19
4.95 5.30
5.07 5.31
5.31 5.30
5.59 5.26
5.68 5.22
5.55 5.24
5.29 5.24
5.17 4.81
5.22 4.46
5.15 4.51
5.14 4.54
5.16 4.67
5.15 4.83
5.13 4.88
5.11 4.86
5.11 4.85
5.10 4.85
5.10 4.85
5.11 4.86
5.10 4.85
5.08 4.85
5.06 4.86
5.06 4.85
5.06 4.86
5.05 4.88
5.05 4.90
5.05 4.91
5.06 4.92
5.05 4.93
5.06 4.95
5.06 4.97
5.06 4.97
5.06 4.97
5.07 4.98
5.07 4.99
5.08 4.98
5.08 4.98
5.09 4.98
5.09 4.99
5.10 4.99
5.10 4.98
5.10 4.97
5.09 4.98
5.10 4.98
5.10 4.97
5.10 4.97
5.11 4.97
5.11 4.97
5.11 4.98
5.11 5.00
5.11 5.02
5.11 5.03
5.11 5.04
5.11 5.06
5.12 5.07
5.12 5.08
5.12 5.08
5.13 5.09
5.14 5.10
5.14 5.11
5.13 5.11
5.11 5.08
5.10 5.06
5.09 5.05
5.09 5.04
5.08 5.03
5.07 5.03
5.07 5.03
5.06 5.02
5.06 5.01
5.06 5.01
5.06 5.01
5.06 5.00
5.07 5.00
5.07 5.00
5.07 4.99
5.07 4.99
5.08 4.99
5.08 4.98
5.08 4.97
5.08 4.96
5.08 4.96
5.09 4.96
5.10 4.95
5.11 4.95
5.11 4.95
5.12 4.96
5.13 4.97
5.13 4.98
5.13 5.00
5.13 5.00
5.13 5.01
5.11 5.02
5.07 5.06
5.03 5.18
5.06 5.35
5.16 5.46
5.35 5.49
5.61 5.44
5.71 5.34
5.59 5.37
5.35 5.13
5.24 4.71
5.23 4.58
5.14 4.70
5.14 4.77
5.11 4.92
5.09 4.95
5.07 4.92
5.06 4.91
5.06 4.90
5.05 4.91
5.05 4.91
5.05 4.91
5.05 4.91
5.05 4.91
5.05 4.91
5.05 4.91
5.05 4.92
5.05 4.92
5.06 4.91
5.05 4.91
5.06 4.92
5.06 4.92
5.06 4.91
5.06 4.90
5.06 4.90
5.06 4.89
5.07 4.89
5.07 4.90
5.08 4.90
5.08 4.91
5.07 4.92
5.08 4.93
5.08 4.94
5.07 4.93
5.07 4.93
5.08 4.94
5.08 4.96
5.09 4.98
5.08 5.00
5.07 5.01
5.07 5.03
5.06 5.05
5.06 5.06
5.07 5.07
5.07 5.08
5.08 5.09
5.08 5.10
5.08 5.11
5.08 5.11
5.09 5.10
5.09 5.09
5.09 5.08
5.09 5.07
5.09 5.06
5.09 5.05
5.08 5.04
5.09 5.04
5.09 5.03
5.09 5.03
5.08 5.02
5.09 5.00
5.08 4.98
5.08 4.98
5.09 5.00
5.09 5.01
5.09 5.00
5.09 5.00
5.10 5.00
5.10 5.00
5.10 4.99
5.09 4.99
5.10 4.98
5.09 4.98
5.09 4.96
5.09 4.96
5.10 4.95
5.10 4.94
5.08 4.93
5.07 4.92
5.05 4.93
5.02 5.00
4.99 5.14
5.03 5.36
5.14 5.50
5.32 5.58
5.55 5.51
5.67 5.38
5.59 5.34
5.36 5.26
5.19 4.85
5.21 4.50
5.13 4.59
5.13 4.65
5.13 4.78
5.09 4.91
5.07 4.93
5.06 4.90
5.06 4.91
5.06 4.92
5.06 4.92
5.06 4.92
5.06 4.93
5.06 4.93
5.07 4.93
5.06 4.93
5.07 4.92
5.07 4.91
5.06 4.90
5.06 4.89
5.06 4.87
5.06 4.86
5.06 4.85
5.06 4.84
5.06 4.83
5.07 4.84
5.08 4.86
5.09 4.88
5.08 4.89
5.08 4.91
5.08 4.93
5.08 4.94
5.08 4.96
5.08 4.97
5.08 4.98
5.08 5.00
5.09 5.01
5.09 5.02
5.09 5.03
5.09 5.04
5.09 5.05
5.10 5.06
5.11 5.08
5.11 5.09
5.12 5.10
5.12 5.10
5.12 5.11
5.13 5.10
5.12 5.11
5.12 5.11
5.11 5.10
5.12 5.12
5.12 5.13
5.11 5.13
5.10 5.12
5.10 5.11
5.10 5.09
5.10 5.08
5.09 5.06
5.10 5.05
5.10 5.03
5.09 5.01
5.07 5.00
5.06 4.99
5.07 4.98
5.07 4.96
5.07 4.95
5.06 4.94
5.06 4.93
5.06 4.92
5.05 4.90
5.05 4.89
5.05 4.88
5.05 4.88
5.04 4.87
5.04 4.87
5.05 4.88
5.05 4.89
5.06 4.90
5.07 4.89
5.07 4.90
5.06 4.90
5.07 4.91
5.07 4.92
5.07 4.94
5.08 4.96
5.08 4.98
5.07 4.99
5.08 5.00
5.08 5.01
5.08 5.02
5.08 5.02
5.09 5.02
5.09 5.03
5.09 5.02
5.09 5.01
5.07 4.99
5.06 4.98
5.05 4.99
5.04 5.00
5.04 5.00
5.03 4.98
5.03 4.96
5.04 4.94
5.05 4.92
5.05 4.92
5.06 4.92
5.06 4.90
5.06 4.89
5.06 4.87
5.06 4.86
5.06 4.85
5.06 4.85
5.06 4.86
5.06 4.88
5.06 4.88
5.06 4.88
5.06 4.89
5.06 4.89
5.06 4.89
5.06 4.90
5.05 4.91
5.05 4.92
5.05 4.92
5.04 4.91
5.04 4.89
5.03 4.88
5.04 4.90
5.03 4.92
5.03 4.95
5.03 4.96
5.04 4.96
5.04 4.96
5.05 4.96
5.06 4.96
5.08 4.98
5.07 4.99
5.06 4.98
5.06 4.97
5.06 4.97
5.06 4.97
5.07 4.96
5.07 4.96
5.07 4.96
5.07 4.96
5.07 4.95
5.08 4.94
5.08 4.94
5.08 4.93
5.07 4.92
5.07 4.92
5.07 4.91
5.06 4.89
5.06 4.89
5.06 4.90
5.07 4.91
5.07 4.92
5.08 4.92
5.08 4.92
5.08 4.91
5.08 4.92
5.08 4.92
5.08 4.92
5.08 4.92
5.05 4.97
4.97 5.07
4.94 5.19
5.00 5.30
5.17 5.35
5.44 5.35
5.68 5.38
5.69 5.32
5.47 5.37
5.20 5.25
5.14 4.73
5.14 4.52
5.06 4.53
5.07 4.56
5.09 4.71
5.09 4.85
5.06 4.90
5.05 4.90
5.05 4.90
5.04 4.89
5.04 4.89
5.04 4.88
5.04 4.87
5.04 4.87
5.04 4.86
5.04 4.85
5.04 4.84
5.05 4.85
5.05 4.85
5.05 4.84
5.05 4.84
5.05 4.84
5.06 4.84
5.06 4.85
5.07 4.86
5.08 4.87
5.09 4.87
5.10 4.87
5.11 4.88
5.12 4.88
5.13 4.90
5.14 4.92
5.14 4.96
5.14 4.99
5.15 5.03
5.15 5.04
5.15 5.05
5.13 5.05
5.12 5.06
5.12 5.07
5.11 5.08
5.12 5.09
5.12 5.09
5.12 5.09
5.12 5.10
5.12 5.10
5.13 5.11
5.13 5.11
5.14 5.12
5.14 5.12
5.15 5.12
5.16 5.11
5.16 5.10
5.16 5.10
5.16 5.09
5.16 5.08
5.15 5.06
5.15 5.05
5.14 5.03
5.14 5.02
5.13 5.00
5.13 4.98
5.13 4.98
5.13 4.98
5.13 4.97
5.13 4.97
5.13 4.97
5.13 4.98
5.12 4.98
5.12 4.98
5.12 4.99
5.12 4.99
5.12 5.00
5.11 5.00
5.12 5.00
5.10 5.00
5.09 5.00
5.09 4.99
5.09 4.99
5.09 5.00
5.09 5.01
5.09 5.02
5.09 5.02
5.09 5.03
5.09 5.03
5.09 5.03
5.09 5.03
5.08 5.03
5.08 5.02
5.08 5.01
5.08 5.02
5.08 5.03
5.09 5.02
5.09 5.00
5.09 4.99
5.09 4.98
5.09 4.97
5.09 4.96
5.09 4.95
5.10 4.94
5.09 4.94
5.05 4.96
4.99 5.05
4.97 5.24
5.02 5.35
5.17 5.37
5.41 5.30
5.62 5.23
5.62 5.16
5.42 5.27
5.21 5.15
5.19 4.64
5.20 4.51
5.13 4.57
5.15 4.64
5.15 4.82
5.13 4.93
5.10 4.95
5.10 4.94
5.09 4.94
5.08 4.93
5.08 4.93
5.07 4.94
5.07 4.94
5.06 4.93
5.06 4.92
5.06 4.92
5.07 4.92
5.07 4.91
5.07 4.90
5.07 4.91
5.07 4.90
5.07 4.88
5.07 4.88
5.07 4.89
5.08 4.90
5.08 4.89
5.08 4.90
5.09 4.90
5.10 4.91
5.11 4.93
5.12 4.95
5.12 4.95
5.12 4.95
5.12 4.95
5.13 4.98
5.14 5.03
5.15 5.09
5.16 5.11
5.16 5.12
5.15 5.11
5.14 5.12
5.14 5.14
5.14 5.17
5.14 5.18
5.13 5.18
5.14 5.18
5.14 5.17
5.13 5.17
5.13 5.16
5.13 5.14
5.13 5.12
5.13 5.10
5.13 5.10
5.12 5.09
5.12 5.08
5.12 5.06
5.11 5.04
5.10 5.03
5.10 5.01
5.09 5.00
5.09 4.99
5.09 4.99
5.09 4.98
5.09 4.98
5.09 4.99
5.09 4.99
5.09 5.00
5.09 5.01
5.08 5.00
5.08 4.99
5.08 4.99
5.07 4.98
5.07 4.98
5.08 4.97
5.07 4.96
5.07 4.96
5.06 4.95
5.06 4.96
5.07 4.96
5.07 4.95
5.07 4.95
5.06 4.94
5.06 4.95
5.05 4.95
5.05 4.94
5.05 4.94
5.05 4.94
5.05 4.94
5.06 4.97
5.07 5.00
5.08 5.01
5.08 5.01
5.08 4.99
5.08 4.99
5.08 4.99
5.08 5.00
5.08 5.00
5.08 5.00
5.08 4.98
5.08 4.98
5.08 4.99
5.08 4.97
5.08 4.96
5.08 4.95
5.08 4.95
5.10 4.95
5.10 4.95
5.10 4.94
5.10 4.92
5.10 4.91
5.09 4.91
5.09 4.92
5.08 4.90
5.06 4.91
5.05 4.92
5.04 4.92
5.05 4.94
5.06 4.99
5.05 5.00
5.06 5.01
5.06 5.01
5.07 5.00
5.07 5.01
5.07 5.01
5.07 5.01
5.07 5.01
5.06 5.01
5.06 5.00
5.06 5.00
5.07 5.00
5.06 5.00
5.07 4.99
5.07 4.97
5.07 4.97
5.07 4.97
5.07 4.97
5.07 4.98
5.08 4.98
5.09 4.98
5.09 4.98
5.10 4.98
5.10 4.99
5.10 4.99
5.09 4.98
5.09 4.98
5.09 4.98
5.10 4.98
5.10 4.98
5.10 4.98
5.09 4.96
5.09 4.96
5.09 4.95
5.10 4.93
5.09 4.91
5.09 4.92
5.09 4.94
5.09 4.96
5.09 4.97
5.08 4.98
5.09 4.99
5.08 4.98
5.08 4.99
5.08 4.98
5.07 4.99
5.04 5.01
4.97 5.11
4.92 5.23
4.95 5.35
5.07 5.40
5.30 5.41
5.58 5.37
5.69 5.34
5.57 5.35
5.31 5.31
5.17 4.86
5.22 4.50
5.15 4.53
5.14 4.57
5.16 4.68
5.16 4.85
5.13 4.91
5.12 4.91
5.11 4.91
5.11 4.92
5.10 4.94
5.10 4.93
5.10 4.94
5.11 4.94
5.11 4.93
5.12 4.92
5.12 4.91
5.11 4.90
5.10 4.89
5.10 4.89
5.10 4.90
5.10 4.90
5.09 4.91
5.09 4.92
5.09 4.93
5.08 4.94
5.08 4.94
5.07 4.95
5.07 4.96
5.07 4.97
5.07 4.97
5.08 4.99
5.08 5.00
5.09 5.01
5.09 5.02
5.09 5.03
5.10 5.03
5.11 5.04
5.11 5.05
5.12 5.06
5.12 5.05
5.13 5.05
5.13 5.06
5.12 5.07
5.13 5.08
5.14 5.10
5.15 5.11
5.16 5.13
5.16 5.14
5.17 5.14
5.17 5.15
5.17 5.15
5.17 5.15
5.17 5.13
5.16 5.10
5.14 5.08
5.14 5.07
5.13 5.06
5.12 5.05
5.11 5.03
5.11 5.01
5.10 5.00
5.10 5.00
5.09 4.99
5.10 5.00
5.09 5.00
5.09 5.00
5.09 5.01
5.09 5.02
5.10 5.03
5.10 5.03
5.10 5.03
5.11 5.03
5.11 5.03
5.11 5.02
5.11 5.02
5.12 5.01
5.12 5.00
5.11 4.99
5.11 4.98
5.11 4.98
5.10 4.98
5.09 4.98
5.06 4.99
5.03 5.08
5.07 5.26
5.17 5.36
5.36 5.43
5.62 5.39
5.76 5.31
5.66 5.35
5.41 5.25
5.30 4.82
5.27 4.61
5.18 4.72
5.17 4.77
5.16 4.90
5.12 4.93
5.10 4.91
5.10 4.90
5.09 4.90
5.09 4.89
5.09 4.89
5.10 4.90
5.09 4.90
5.10 4.90
5.09 4.89
5.09 4.88
5.09 4.88
5.09 4.89
5.09 4.89
5.09 4.89
5.09 4.89
5.09 4.90
5.09 4.92
5.09 4.92
5.09 4.93
5.10 4.93
5.10 4.93
5.10 4.93
5.11 4.93
5.11 4.94
5.11 4.95
5.11 4.97
5.12 4.99
5.12 5.00
5.13 5.01
5.14 5.03
5.14 5.03
5.14 5.03
5.12 5.03
5.12 5.02
5.12 5.03
5.12 5.04
5.12 5.04
5.12 5.04
5.11 5.05
5.11 5.05
5.11 5.06
5.11 5.07
5.12 5.08
5.12 5.09
5.12 5.09
5.11 5.08
5.11 5.07
5.11 5.07
5.11 5.06
5.11 5.05
5.11 5.05
5.10 5.04
5.10 5.04
5.10 5.04
5.10 5.04
5.11 5.04
5.11 5.05
5.11 5.05
5.11 5.05
5.11 5.05
5.11 5.05
5.11 5.05
5.12 5.04
5.12 5.02
5.12 5.01
5.13 4.99
5.13 4.99
5.13 4.97
5.14 4.98
5.13 4.98
5.11 4.96
5.11 4.96
5.11 4.95
5.11 4.94
5.11 4.94
5.11 4.93
5.11 4.93
5.11 4.92
5.11 4.92
5.10 4.92
5.08 4.96
5.03 5.07
5.03 5.26
5.09 5.42
5.22 5.47
5.44 5.41
5.62 5.25
5.64 5.14
5.44 5.21
5.20 5.15
5.15 4.66
5.20 4.48
5.14 4.58
5.16 4.67
5.16 4.82
5.13 4.95
5.10 4.96
5.09 4.94
5.09 4.93
5.08 4.92
5.08 4.92
5.08 4.92
5.09 4.92
5.09 4.92
5.08 4.93
5.08 4.93
5.08 4.92
5.08 4.90
5.08 4.88
5.08 4.88
5.09 4.87
5.09 4.87
5.10 4.86
5.10 4.86
5.10 4.85
5.10 4.86
5.10 4.86
5.10 4.86
5.10 4.87
5.10 4.87
5.11 4.89
5.12 4.93
5.12 4.95
5.12 4.97
5.12 4.98
5.13 5.00
5.13 5.01
5.12 5.02
5.13 5.04
5.13 5.06
5.13 5.08
5.14 5.11
5.14 5.12
5.15 5.15
5.16 5.18
5.17 5.20
5.18 5.21
5.18 5.19
5.18 5.18
5.18 5.16
5.18 5.14
5.17 5.12
5.16 5.10
5.13 5.07
5.12 5.04
5.11 5.03
5.10 5.02
5.10 5.01
5.09 4.99
5.09 4.97
5.08 4.96
5.08 4.94
5.08 4.94
5.08 4.94
5.09 4.94
5.09 4.94
5.09 4.94
5.09 4.94
5.09 4.94
5.09 4.95
5.09 4.96
5.10 4.97
5.11 4.99
5.12 5.01
5.13 5.02
5.13 5.03
5.12 5.02
5.12 5.03
5.09 5.05
5.05 5.14
5.07 5.34
5.14 5.46
5.28 5.55
5.52 5.52
5.70 5.44
5.69 5.35
5.52 5.24
5.34 4.90
5.33 4.65
5.27 4.72
5.22 4.80
5.17 4.88
5.12 4.94
5.08 4.90
5.06 4.86
5.04 4.84
5.03 4.83
5.03 4.82
5.03 4.83
5.03 4.83
5.03 4.83
5.04 4.83
5.05 4.82
5.05 4.81
5.06 4.81
5.07 4.81
5.07 4.82
5.08 4.83
5.07 4.84
5.08 4.85
5.08 4.86
5.08 4.87
5.08 4.88
5.09 4.88
5.08 4.90
5.09 4.91
5.09 4.92
5.09 4.95
5.09 4.97
5.09 4.98
5.09 5.00
5.09 5.01
5.09 5.02
5.09 5.03
5.09 5.04
5.09 5.06
5.09 5.08
5.09 5.09
5.09 5.10
5.09 5.10
5.09 5.11
5.08 5.11
5.09 5.11
5.10 5.11
5.11 5.11
5.11 5.12
5.11 5.13
5.11 5.12
5.12 5.11
5.11 5.09
5.11 5.07
5.11 5.05
5.10 5.03
5.09 5.01
5.09 4.99
5.09 4.99
5.09 4.98
5.09 4.99
5.10 4.98
5.10 4.99
5.11 4.98
5.11 4.99
5.11 4.98
5.10 4.98
5.11 4.98
5.10 4.97
5.09 4.97
5.09 4.97
5.09 4.99
5.09 4.99
5.09 4.99
5.09 4.98
5.09 4.98
5.09 4.98
5.09 4.98
5.09 4.97
5.09 4.97
5.08 4.96
5.07 4.96
5.07 4.95
5.07 4.96
5.07 4.96
5.07 4.96
5.08 4.96
5.08 4.95
5.08 4.95
5.08 4.94
5.08 4.94
5.08 4.93
5.09 4.94
5.09 4.94
5.09 4.94
5.08 4.94
5.09 4.93
5.09 4.94
5.09 4.95
5.08 4.95
5.08 4.96
5.08 4.97
5.08 4.97
5.08 4.98
5.07 4.98
5.07 4.98
5.07 4.98
5.07 4.98
5.07 4.97
5.07 4.97
5.06 4.96
5.06 4.95
5.05 4.95
5.05 4.95
5.06 4.95
5.07 4.95
5.07 4.94
5.07 4.93
5.06 4.94
5.06 4.96
5.06 5.00
5.06 5.01
5.08 5.00
5.08 4.98
5.08 4.96
5.07 4.96
5.07 4.97
5.07 4.96
5.08 4.95
5.07 4.94
5.08 4.94
5.08 4.95
5.08 4.96
5.08 4.96
5.08 4.97
5.08 4.96
5.08 4.96
5.08 4.96
5.08 4.96
5.07 4.97
5.06 4.98
5.00 5.05
4.93 5.15
4.94 5.27
5.03 5.34
5.24 5.36
5.52 5.32
5.69 5.33
5.61 5.25
5.35 5.29
5.14 5.01
5.17 4.53
5.13 4.50
5.10 4.53
5.12 4.59
5.13 4.78
5.11 4.91
5.09 4.93
5.08 4.92
5.07 4.93
5.07 4.93
5.07 4.94
5.06 4.94
5.06 4.93
5.06 4.93
5.07 4.92
5.07 4.91
5.07 4.90
5.07 4.90
5.07 4.90
5.07 4.89
5.06 4.88
5.07 4.87
5.06 4.86
5.06 4.85
5.05 4.85
5.05 4.86
5.06 4.88
5.07 4.88
5.08 4.88
5.10 4.90
5.10 4.92
5.11 4.93
5.10 4.92
5.10 4.94
5.10 4.95
5.11 4.98
5.11 5.01
5.11 5.03
5.12 5.06
5.11 5.06
5.11 5.06
5.10 5.07
5.11 5.09
5.12 5.12
5.12 5.13
5.13 5.14
5.13 5.15
5.14 5.16
5.14 5.16
5.14 5.16
5.14 5.16
5.14 5.16
5.14 5.14
5.13 5.12
5.13 5.11
5.13 5.09
5.12 5.06
5.12 5.03
5.12 5.00
5.11 4.98
5.11 4.95
5.10 4.94
5.10 4.93
5.10 4.92
5.09 4.92
5.10 4.92
5.09 4.92
5.10 4.93
5.09 4.95
5.09 4.95
5.10 4.97
5.09 4.98
5.08 4.99
5.07 5.00
5.07 5.02
5.06 5.05
5.03 5.11
5.01 5.22
5.03 5.33
5.12 5.36
5.31 5.40
5.53 5.37
5.66 5.29
5.57 5.33
5.28 5.42
5.17 5.16
5.17 4.72
5.08 4.64
5.06 4.63
5.10 4.75
5.10 4.87
5.08 4.88
5.07 4.83
5.08 4.81
5.08 4.79
5.08 4.78
5.08 4.77
5.08 4.78
5.08 4.77
5.08 4.79
5.08 4.80
5.09 4.81
5.09 4.84
5.08 4.85
5.08 4.87
5.07 4.87
5.07 4.87
5.08 4.89
5.07 4.91
5.08 4.93
5.08 4.94
5.08 4.95
5.08 4.97
5.08 4.99
5.09 5.00
5.09 5.00
5.09 5.01
5.09 5.02
5.09 5.03
5.09 5.04
5.09 5.05
5.09 5.06
5.08 5.05
5.08 5.06
5.08 5.08
5.08 5.10
5.08 5.11
5.08 5.09
5.08 5.08
5.08 5.07
5.09 5.06
5.09 5.06
5.10 5.06
5.12 5.08
5.13 5.11
5.14 5.11
5.14 5.08
5.14 5.04
5.13 5.02
5.12 5.00
5.11 4.98
5.11 4.97
5.11 4.97
5.11 4.96
5.10 4.96
5.10 4.94
5.10 4.94
5.09 4.95
5.10 4.94
5.09 4.94
5.08 4.95
5.08 4.95
5.08 4.96
5.08 4.96
5.07 4.95
5.07 4.95
5.07 4.94
5.06 4.94
5.06 4.95
5.05 4.96
5.05 4.95
5.05 4.95
5.05 4.96
5.05 4.96
5.05 4.96
5.05 4.96
5.05 4.95
5.07 4.96
5.08 4.96
5.09 4.96
5.09 4.94
5.09 4.93
5.09 4.92
5.09 4.93
5.09 4.94
5.09 4.94
5.09 4.93
5.09 4.92
5.09 4.91
5.09 4.90
5.09 4.92
5.09 4.92
5.09 4.92
5.08 4.92
5.05 4.94
4.96 5.01
4.93 5.11
4.97 5.20
5.13 5.26
5.39 5.29
5.64 5.33
5.69 5.33
5.48 5.40
5.21 5.36
5.15 4.88
5.18 4.63
5.11 4.62
5.11 4.63
5.12 4.74
5.11 4.87
5.08 4.93
5.07 4.92
5.08 4.93
5.07 4.91
5.07 4.91
5.08 4.91
5.08 4.91
5.09 4.90
5.10 4.88
5.10 4.88
5.10 4.88
5.09 4.87
5.09 4.86
5.10 4.85
5.10 4.85
5.10 4.84
5.10 4.83
5.10 4.83
5.10 4.83
5.10 4.84
5.10 4.84
5.10 4.84
5.10 4.85
5.10 4.85
5.10 4.85
5.10 4.87
5.10 4.88
5.10 4.89
5.10 4.89
5.10 4.89
5.10 4.90
5.10 4.92
5.10 4.93
5.11 4.95
5.12 4.98
5.14 5.01
5.14 5.05
5.15 5.09
5.15 5.13
5.15 5.16
5.16 5.18
5.16 5.19
5.16 5.18
5.16 5.16
5.16 5.15
5.16 5.14
5.16 5.13
5.15 5.11
5.14 5.09
5.13 5.06
5.12 5.03
5.12 5.01
5.11 4.99
5.10 4.98
5.10 4.97
5.10 4.96
5.10 4.95
5.10 4.94
5.10 4.93
5.09 4.92
5.09 4.91
5.09 4.90
5.09 4.90
5.09 4.90
5.08 4.89
5.08 4.90
5.09 4.91
5.09 4.93
5.10 4.95
5.10 4.95
5.10 4.94
5.10 4.94
5.10 4.94
5.10 4.96
5.10 4.98
5.11 4.98
5.11 4.99
5.11 5.00
5.11 4.99
5.11 4.99
5.11 4.99
5.11 4.98
5.11 4.97
5.11 4.96
5.11 4.96
5.11 4.96
5.11 4.96
5.10 4.95
5.10 4.95
5.09 4.93
5.09 4.92
5.08 4.92
5.07 4.91
5.07 4.93
5.08 4.94
5.08 4.94
5.08 4.96
5.09 4.95
5.09 4.95
5.10 4.95
5.10 4.94
5.09 4.93
5.09 4.91
5.09 4.90
5.09 4.89
5.09 4.89
5.08 4.89
5.07 4.90
5.07 4.90
5.07 4.91
5.06 4.91
5.06 4.90
5.06 4.90
5.06 4.90
5.06 4.90
5.05 4.89
5.05 4.88
5.04 4.87
5.04 4.87
5.03 4.89
5.03 4.91
5.04 4.91
5.06 4.93
5.06 4.94
5.07 4.96
5.07 4.96
5.07 4.96
5.07 4.96
5.08 4.97
5.09 4.97
5.09 4.98
5.09 4.98
5.09 4.97
5.06 5.00
5.00 5.07
4.95 5.21
4.99 5.35
5.12 5.41
5.35 5.42
5.61 5.35
5.69 5.25
5.55 5.26
5.28 5.24
5.15 4.79
5.19 4.43
5.11 4.47
5.10 4.49
5.11 4.62
5.10 4.78
5.08 4.85
5.07 4.85
5.07 4.87
5.07 4.88
5.07 4.88
5.06 4.87
5.06 4.86
5.07 4.86
5.07 4.85
5.07 4.85
5.07 4.85
5.07 4.85
5.07 4.85
5.07 4.85
5.07 4.85
5.07 4.86
5.07 4.86
5.07 4.87
5.07 4.87
5.07 4.88
5.08 4.89
5.09 4.89
5.09 4.91
5.09 4.93
5.10 4.94
5.10 4.96
5.10 4.96
5.11 4.97
5.12 4.99
5.12 4.99
5.11 5.00
5.10 5.00
5.09 5.00
5.09 5.01
5.09 5.02
5.09 5.03
5.09 5.03
5.09 5.04
5.10 5.06
5.11 5.08
5.11 5.09
5.12 5.09
5.12 5.09
5.13 5.10
5.13 5.10
5.13 5.10
5.13 5.10
5.13 5.09
5.12 5.07
5.11 5.05
5.11 5.04
5.11 5.04
5.10 5.04
5.09 5.02
5.09 5.01
5.10 5.01
5.10 5.01
5.10 5.00
5.09 4.99
5.08 4.99
5.08 4.98
5.09 4.97
5.09 4.96
5.09 4.95
5.09 4.94
5.09 4.94
5.09 4.93
5.09 4.93
5.08 4.92
5.08 4.91
5.08 4.92
5.08 4.94
5.08 4.95
5.09 4.96
5.09 4.97
5.10 4.98
5.10 4.98
5.10 4.98
5.10 4.99
5.10 5.00
5.10 5.01
5.10 5.03
5.10 5.03
5.10 5.03
5.09 5.02
5.10 5.02
5.09 5.03
5.06 5.06
5.00 5.16
4.99 5.36
5.05 5.50
5.20 5.56
5.43 5.49
5.63 5.38
5.61 5.33
5.40 5.33
5.20 4.96
5.18 4.49
5.15 4.49
5.12 4.56
5.15 4.68
5.13 4.84
5.10 4.88
5.08 4.86
5.07 4.86
5.07 4.86
5.07 4.86
5.07 4.86
5.07 4.86
5.07 4.87
5.07 4.87
5.06 4.87
5.06 4.88
5.07 4.88
5.08 4.89
5.08 4.91
5.09 4.92
5.10 4.93
5.10 4.93
5.10 4.94
5.10 4.95
5.10 4.95
5.10 4.95
5.10 4.94
5.10 4.94
5.10 4.95
5.10 4.95
5.10 4.97
5.10 4.98
5.10 4.99
5.10 5.00
5.10 5.00
5.11 5.03
5.13 5.05
5.13 5.06
5.14 5.07
5.14 5.07
5.13 5.07
5.12 5.07
5.13 5.07
5.13 5.09
5.13 5.10
5.14 5.12
5.14 5.11
5.14 5.11
5.14 5.09
5.13 5.07
5.13 5.07
5.12 5.05
5.12 5.04
5.12 5.03
5.11 5.02
5.10 5.00
5.10 4.99
5.09 4.98
5.09 4.98
5.09 4.97
5.10 4.97
5.09 4.97
5.09 4.98
5.09 4.98
5.09 4.97
5.09 4.97
5.09 4.97
5.09 4.98
5.09 4.98
5.09 4.98
5.09 4.98
5.09 4.98
5.09 4.98
5.09 4.98
5.09 4.98
5.10 4.97
5.10 4.96
5.09 4.96
5.09 4.97
5.09 4.97
5.09 4.96
5.09 4.96
5.10 4.96
5.10 4.96
5.10 4.96
5.11 4.95
5.10 4.96
5.11 4.96
5.11 4.96
5.11 4.96
5.11 4.97
5.11 5.00
5.08 5.04
5.02 5.16
5.01 5.36
5.06 5.50
5.20 5.54
5.42 5.44
5.60 5.28
5.62 5.13
5.45 5.21
5.21 5.10
5.16 4.61
5.19 4.44
5.13 4.52
5.15 4.59
5.16 4.76
5.13 4.88
5.11 4.89
5.10 4.87
5.10 4.85
5.08 4.83
5.08 4.83
5.07 4.84
5.06 4.84
5.06 4.85
5.06 4.86
5.06 4.85
5.06 4.86
5.07 4.87
5.08 4.88
5.08 4.89
5.09 4.89
5.09 4.90
5.10 4.91
5.10 4.91
5.11 4.91
5.11 4.92
5.11 4.93
5.12 4.95
5.12 4.96
5.13 4.98
5.14 5.00
5.14 5.02
5.14 5.03
5.15 5.04
5.15 5.05
5.14 5.07
5.14 5.09
5.14 5.10
5.14 5.11
5.14 5.12
5.15 5.11
5.15 5.11
5.15 5.11
5.16 5.11
5.16 5.12
5.17 5.12
5.17 5.12
5.16 5.12
5.16 5.11
5.15 5.11
5.14 5.11
5.13 5.11
5.13 5.10
5.13 5.09
5.12 5.08
5.12 5.08
5.12 5.06
5.11 5.05
5.11 5.04
5.11 5.04
5.10 5.03
5.10 5.03
5.10 5.03
5.10 5.01
5.10 5.01
5.10 5.00
5.09 4.98
5.09 4.96
5.10 4.95
5.09 4.97
5.09 4.97
5.10 4.97
5.09 4.96
5.09 4.95
5.09 4.94
5.09 4.93
5.09 4.93
5.09 4.93
5.10 4.94
5.11 4.95
5.11 4.96
5.11 4.96
5.11 4.97
5.10 4.97
5.10 4.97
5.10 4.97
5.09 4.98
5.09 4.98
5.09 4.98
5.09 4.98
5.09 4.98
5.09 4.99
5.09 4.99
5.09 4.98
5.09 4.97
5.08 4.97
5.08 4.98
5.08 4.97
5.07 4.97
5.07 4.96
5.06 4.96
5.06 4.95
5.07 4.95
5.07 4.95
5.07 4.95
5.07 4.94
5.08 4.94
5.08 4.93
5.08 4.92
5.08 4.92
5.09 4.93
5.09 4.94
5.10 4.95
5.10 4.96
5.11 4.97
5.10 4.98
5.10 4.97
5.09 4.98
5.09 4.98
5.09 4.98
5.09 4.98
5.09 4.97
5.09 4.98
5.09 4.98
5.09 4.98
5.09 4.98
5.08 4.97
5.08 4.97
5.08 4.97
5.08 4.97
5.08 4.96
5.08 4.96
5.07 4.95
5.08 4.95
5.08 4.94
5.08 4.94
5.08 4.94
5.07 4.94
5.06 4.97
4.99 5.04
4.94 5.17
4.96 5.32
5.08 5.40
5.31 5.43
5.59 5.37
5.70 5.30
5.59 5.28
5.33 5.26
5.18 4.83
5.23 4.47
5.16 4.52
5.15 4.59
5.17 4.73
5.16 4.89
5.14 4.95
5.12 4.94
5.11 4.93
5.11 4.90
5.10 4.89
5.09 4.88
5.08 4.86
5.07 4.86
5.05 4.85
5.05 4.86
5.05 4.86
5.05 4.86
5.05 4.86
5.05 4.85
5.05 4.85
5.05 4.85
5.05 4.85
5.05 4.85
5.05 4.86
5.06 4.88
5.07 4.90
5.07 4.92
5.08 4.93
5.09 4.94
5.11 4.97
5.14 5.02
5.14 5.02
5.14 5.02
5.14 5.03
5.14 5.04
5.15 5.05
5.15 5.05
5.16 5.05
5.16 5.06
5.15 5.07
5.16 5.08
5.16 5.08
5.16 5.08
5.16 5.09
5.16 5.10
5.16 5.10
5.17 5.10
5.17 5.12
5.18 5.14
5.18 5.16
5.17 5.14
5.16 5.13
5.15 5.12
5.15 5.12
5.14 5.12
5.13 5.10
5.12 5.08
5.12 5.07
5.12 5.08
5.12 5.07
5.12 5.06
5.12 5.05
5.12 5.04
5.12 5.04
5.12 5.04
5.12 5.03
5.11 5.02
5.11 5.01
5.11 5.01
5.11 5.02
5.11 5.03
5.11 5.02
5.11 5.01
5.11 5.00
5.11 5.00
5.11 5.00
5.10 4.99
5.10 4.97
5.09 4.95
5.09 4.93
5.09 4.92
5.09 4.94
5.10 4.96
5.10 4.97
5.10 4.97
5.11 4.98
5.11 4.99
5.11 5.00
5.11 5.01
5.11 5.02
5.11 5.02
5.11 5.03
5.12 5.03
5.12 5.03
5.12 5.03
5.11 5.04
5.12 5.04
5.12 5.04
5.11 5.03
5.11 5.04
5.08 5.05
5.02 5.11
4.98 5.28
4.99 5.46
5.09 5.51
5.29 5.48
5.53 5.33
5.60 5.16
5.48 5.23
5.26 5.23
5.13 4.78
5.18 4.48
5.13 4.56
5.14 4.63
5.17 4.80
5.16 4.94
5.14 4.95
5.13 4.92
5.12 4.92
5.12 4.90
5.11 4.88
5.10 4.88
5.09 4.88
5.08 4.89
5.08 4.89
5.08 4.89
5.08 4.89
5.08 4.88
5.08 4.88
5.08 4.88
5.08 4.89
5.08 4.90
5.09 4.91
5.09 4.92
5.09 4.93
5.09 4.93
5.09 4.94
5.09 4.94
5.09 4.94
5.09 4.93
5.09 4.93
5.10 4.94
5.10 4.94
5.09 4.95
5.11 4.99
5.13 5.04
5.14 5.09
5.15 5.14
5.16 5.16
5.16 5.17
5.16 5.18
5.17 5.17
5.16 5.17
5.17 5.18
5.17 5.17
5.17 5.16
5.16 5.14
5.15 5.13
5.15 5.15
5.14 5.16
5.14 5.13
5.13 5.11
5.12 5.09
5.12 5.08
5.11 5.06
5.11 5.05
5.10 5.03
5.09 5.01
5.09 5.00
5.08 4.99
5.08 4.99
5.07 4.99
5.07 4.98
5.07 4.97
5.06 4.97
5.06 4.96
5.06 4.95
5.06 4.96
5.07 4.97
5.09 5.01
5.10 5.05
5.12 5.06
5.12 5.05
5.12 5.04
5.12 5.03
5.12 5.02
5.12 5.01
5.12 5.00
5.12 5.00
5.13 5.00
5.13 4.98
5.11 4.97
5.10 4.96
5.09 4.95
5.10 4.96
5.09 4.96
5.09 4.95
5.08 4.96
5.09 4.96
5.08 4.95
5.08 4.95
5.08 4.95
5.07 4.96
5.07 4.95
5.07 4.95
5.06 4.95
5.06 4.95
5.05 4.94
5.05 4.94
5.04 4.94
5.04 4.95
5.04 4.97
5.05 4.98
5.08 5.02
5.09 5.06
5.09 5.07
5.09 5.05
5.09 5.04
5.09 5.04
5.10 5.05
5.10 5.05
5.10 5.04
5.11 5.01
5.11 4.98
5.11 4.97
5.11 4.96
5.11 4.94
5.09 4.94
5.08 4.94
5.08 4.94
5.08 4.94
5.07 4.95
5.07 4.95
5.07 4.94
5.07 4.94
5.07 4.94
5.07 4.96
5.07 4.96
5.06 4.95
5.06 4.94
5.05 4.94
5.05 4.94
5.04 4.95
5.01 4.99
4.94 5.11
4.93 5.27
4.97 5.40
5.12 5.43
5.37 5.42
5.62 5.38
5.67 5.32
5.50 5.38
5.26 5.30
5.18 4.78
5.21 4.59
5.14 4.64
5.16 4.66
5.17 4.80
5.15 4.92
5.13 4.93
5.12 4.90
5.11 4.89
5.09 4.89
5.08 4.89
5.08 4.89
5.07 4.90
5.07 4.91
5.07 4.92
5.06 4.92
5.06 4.93
5.06 4.94
5.06 4.95
5.06 4.96
5.06 4.97
5.06 4.99
5.07 5.00
5.07 5.03
5.08 5.02
5.07 5.01
5.08 5.00
5.09 5.00
5.10 5.02
5.11 5.03
5.11 5.05
5.11 5.05
5.11 5.04
5.12 5.03
5.12 5.04
5.12 5.03
5.12 5.03
5.13 5.05
5.13 5.05
5.13 5.05
5.13 5.06
5.13 5.06
5.12 5.06
5.12 5.06
5.12 5.07
5.12 5.10
5.12 5.10
5.12 5.09
5.13 5.10
5.13 5.10
5.12 5.09
5.12 5.09
5.12 5.09
5.11 5.08
5.11 5.08
5.10 5.08
5.10 5.07
5.09 5.07
5.08 5.06
5.08 5.05
5.08 5.05
5.07 5.05
5.06 5.05
5.07 5.05
5.07 5.05
5.08 5.03
5.09 5.04
5.10 5.06
5.11 5.05
5.12 5.05
5.12 5.05
5.12 5.05
5.12 5.05
5.12 5.04
5.12 5.03
5.12 5.03
5.12 5.03
5.11 5.04
5.09 5.07
5.05 5.14
5.06 5.30
5.11 5.39
5.26 5.47
5.49 5.42
5.68 5.38
5.62 5.31
5.43 5.24
5.30 4.89
5.32 4.67
5.23 4.79
5.20 4.85
5.17 4.98
5.13 5.02
5.11 4.99
5.09 4.98
5.08 4.97
5.08 4.96
5.07 4.96
5.06 4.96
5.06 4.97
5.05 4.97
5.05 4.96
5.05 4.95
5.05 4.95
5.04 4.94
5.04 4.94
5.05 4.97
5.06 4.98
5.08 5.00
5.09 5.03
5.09 5.02
5.09 5.01
5.09 4.98
5.09 4.93
5.10 4.91
5.10 4.92
5.10 4.92
5.10 4.92
5.09 4.93
5.09 4.95
5.09 4.96
5.08 4.98
5.08 4.99
5.08 5.00
5.08 5.01
5.08 5.02
5.08 5.03
5.08 5.04
5.08 5.06
5.08 5.07
5.08 5.09
5.08 5.10
5.08 5.11
5.08 5.12
5.08 5.13
5.08 5.13
5.08 5.13
5.08 5.12
5.08 5.11
5.09 5.10
5.08 5.08
5.08 5.07
5.08 5.07
5.07 5.06
5.07 5.06
5.07 5.06
5.08 5.06
5.08 5.06
5.09 5.06
5.10 5.08
5.11 5.08
5.11 5.08
5.11 5.05
5.10 5.05
5.10 5.05
5.11 5.04
5.11 5.03
5.11 5.03
5.11 5.03
5.11 5.03
5.11 5.03
5.11 5.03
5.11 5.03
5.11 5.03
5.11 5.03
5.11 5.03
5.11 5.03
5.11 5.04
5.11 5.04
5.10 5.06
5.07 5.10
5.02 5.21
5.03 5.42
5.09 5.54
5.23 5.57
5.45 5.47
5.61 5.32
5.57 5.21
5.34 5.28
5.11 5.09
5.10 4.60
5.11 4.55
5.09 4.65
5.15 4.79
5.16 4.96
5.13 5.04
5.11 5.03
5.10 5.01
5.09 5.01
5.09 5.00
5.08 4.98
5.08 4.97
5.08 4.95
5.08 4.94
5.07 4.93
5.08 4.93
5.07 4.93
5.07 4.93
5.07 4.93
5.07 4.93
5.07 4.93
5.06 4.93
5.06 4.93
5.06 4.93
5.07 4.93
5.07 4.94
5.07 4.94
5.07 4.94
5.07 4.95
5.08 4.95
5.08 4.97
5.08 4.98
5.08 4.99
5.09 5.01
5.08 5.04
5.08 5.05
5.09 5.08
5.11 5.14
5.14 5.21
5.15 5.22
5.16 5.24
5.17 5.25
5.17 5.25
5.16 5.26
5.16 5.26
5.16 5.26
5.16 5.26
5.16 5.26
5.16 5.24
5.16 5.22
5.15 5.19
5.15 5.17
5.14 5.14
5.13 5.12
5.13 5.10
5.12 5.08
5.12 5.06
5.12 5.05
5.11 5.04
5.11 5.03
5.10 5.02
5.10 5.02
5.10 5.01
5.10 5.00
5.09 5.00
5.09 4.99
5.09 4.99
5.09 4.99
5.09 4.99
5.09 4.99
5.09 4.99
5.09 4.99
5.09 4.99
5.08 4.99
5.08 5.00
5.08 5.01
5.08 5.02
5.07 5.03
5.09 5.06
5.11 5.10
5.12 5.13
5.11 5.13
5.11 5.11
5.11 5.10
5.11 5.08
5.11 5.08
5.11 5.07
5.11 5.07
5.10 5.06
5.10 5.06
5.10 5.05
5.10 5.05
5.10 5.03
5.10 5.02
5.10 5.02
5.10 5.01
5.10 5.00
5.09 4.99
5.09 4.99
5.09 4.98
5.09 4.97
5.08 4.96
5.08 4.97
5.08 4.96
5.08 4.97
5.07 4.96
5.07 4.96
5.06 4.96
5.06 4.96
5.06 4.96
5.06 4.97
5.06 4.98
5.06 4.98
5.06 4.98
5.05 4.96
5.05 4.96
5.05 4.99
5.06 5.03
5.07 5.06
5.08 5.09
5.09 5.11
5.09 5.11
5.09 5.10
5.09 5.08
5.10 5.06
5.10 5.04
5.10 5.03
5.10 5.02
5.10 5.02
5.10 5.01
5.10 5.00
5.10 5.00
5.10 4.99
5.10 4.98
5.10 4.98
5.10 4.98
5.11 4.97
5.11 4.97
5.11 4.96
5.11 4.95
5.09 4.96
5.06 5.00
4.98 5.10
4.96 5.24
5.02 5.35
5.18 5.40
5.44 5.36
5.67 5.33
5.66 5.23
5.46 5.31
5.21 5.15
5.17 4.66
5.17 4.53
5.09 4.57
5.09 4.60
5.09 4.78
5.08 4.95
5.08 5.00
5.09 5.02
5.09 5.03
5.09 5.01
5.09 5.00
5.09 4.99
5.09 4.97
5.09 4.96
5.10 4.96
5.09 4.95
5.09 4.94
5.10 4.94
5.10 4.93
5.10 4.93
5.10 4.93
5.10 4.93
5.10 4.93
5.10 4.93
5.10 4.94
5.10 4.93
5.10 4.94
5.10 4.95
5.11 4.97
5.11 4.98
5.11 4.99
5.11 4.99
5.11 4.99
5.12 5.00
5.12 5.01
5.12 5.02
5.12 5.02
5.11 5.02
5.10 5.01
5.10 5.01
5.10 5.01
5.10 5.02
5.10 5.02
5.10 5.04
5.12 5.09
5.13 5.12
5.14 5.15
5.16 5.19
5.17 5.23
5.18 5.23
5.18 5.22
5.18 5.22
5.18 5.21
5.18 5.20
5.17 5.18
5.17 5.16
5.16 5.14
5.15 5.13
5.15 5.11
5.14 5.09
5.14 5.08
5.13 5.06
5.13 5.04
5.12 5.04
5.12 5.04
5.12 5.04
5.12 5.04
5.12 5.04
5.12 5.04
5.12 5.04
5.12 5.03
5.12 5.03
5.13 5.02
5.13 5.01
5.11 4.99
5.10 4.98
5.09 4.96
5.08 4.95
5.07 4.95
5.07 4.96
5.07 4.99
5.06 5.04
5.03 5.16
5.04 5.35
5.11 5.49
5.25 5.59
5.49 5.57
5.71 5.54
5.73 5.45
5.55 5.35
5.37 4.98
5.33 4.67
5.26 4.74
5.21 4.84
5.19 4.96
5.14 5.03
5.11 4.99
5.09 4.96
5.09 4.94
5.08 4.92
5.08 4.90
5.08 4.88
5.07 4.88
5.07 4.88
5.08 4.88
5.07 4.88
5.07 4.88
5.07 4.89
5.07 4.89
5.07 4.88
5.07 4.87
5.07 4.85
5.07 4.85
5.07 4.85
5.07 4.86
5.06 4.85
5.04 4.85
5.04 4.84
5.04 4.86
5.04 4.87
5.05 4.89
5.05 4.90
5.05 4.93
5.05 4.94
5.06 4.94
5.06 4.95
5.07 4.98
5.08 5.01
5.09 5.04
5.11 5.08
5.10 5.09
5.10 5.11
5.10 5.12
5.10 5.13
5.10 5.14
5.10 5.14
5.10 5.15
5.11 5.14
5.11 5.14
5.11 5.13
5.11 5.13
5.11 5.12
5.11 5.11
5.11 5.10
5.10 5.09
5.10 5.07
5.10 5.06
5.10 5.04
5.10 5.02
5.10 5.01
5.10 5.00
5.10 4.98
5.10 4.97
5.09 4.96
5.08 4.95
5.08 4.95
5.08 4.95
5.08 4.96
5.08 4.96
5.08 4.95
5.08 4.95
5.09 4.95
5.09 4.94
5.09 4.94
5.10 4.95
5.10 4.95
5.09 4.96
5.09 4.98
5.10 4.99
5.10 4.99
5.10 5.00
5.10 5.01
5.10 5.02
5.09 5.02
5.09 5.01
5.10 5.01
5.09 5.02
5.09 5.01
5.08 5.00
5.08 4.99
5.07 4.99
5.07 4.98
5.06 4.98
5.06 4.97
5.06 4.96
5.06 4.95
5.06 4.94
5.06 4.93
5.05 4.94
5.04 4.94
5.04 4.94
5.04 4.94
5.05 4.94
5.05 4.94
5.05 4.94
5.05 4.93
5.05 4.92
5.05 4.91
5.06 4.91
5.08 4.92
5.10 4.94
5.10 4.95
5.11 4.96
5.12 4.97
5.12 4.97
5.11 4.95
5.11 4.95
5.10 4.95
5.10 4.97
5.09 4.98
5.09 5.02
5.09 5.05
5.10 5.07
5.10 5.06
5.09 5.05
5.08 5.04
5.08 5.02
5.08 5.01
5.08 5.00
5.08 4.99
5.08 4.98
5.08 4.97
5.07 4.96
5.07 4.94
5.07 4.92
5.06 4.90
5.04 4.91
5.03 4.92
5.02 4.92
4.98 4.97
4.91 5.06
4.89 5.20
4.96 5.31
5.13 5.36
5.40 5.34
5.62 5.33
5.63 5.22
5.42 5.24
5.17 5.07
5.13 4.54
5.15 4.39
5.08 4.44
5.11 4.50
5.13 4.66
5.12 4.81
5.10 4.83
5.09 4.83
5.09 4.83
5.08 4.83
5.07 4.85
5.07 4.87
5.08 4.91
5.08 4.93
5.08 4.94
5.08 4.95
5.08 4.95
5.08 4.95
5.08 4.95
5.08 4.94
5.08 4.94
5.09 4.94
5.08 4.93
5.07 4.92
5.06 4.92
5.06 4.93
5.06 4.93
5.06 4.93
5.07 4.94
5.07 4.94
5.07 4.94
5.07 4.94
5.07 4.96
5.08 4.96
5.08 4.97
5.08 4.97
5.09 4.98
5.09 4.99
5.10 4.99
5.10 4.99
5.10 4.99
5.11 4.99
5.11 4.99
5.12 5.00
5.12 5.01
5.13 5.01
5.14 5.02
5.16 5.06
5.17 5.10
5.18 5.13
5.18 5.15
5.18 5.16
5.18 5.16
5.18 5.15
5.18 5.14
5.17 5.12
5.16 5.11
5.16 5.09
5.15 5.08
5.15 5.07
5.14 5.06
5.13 5.05
5.13 5.05
5.12 5.04
5.11 5.04
5.11 5.03
5.11 5.02
5.11 5.01
5.11 4.99
5.11 4.98
5.11 4.98
5.11 4.98
5.11 4.96
5.10 4.94
5.10 4.93
5.09 4.94
5.08 4.94
5.09 4.97
5.10 5.00
5.12 5.03
5.13 5.05
5.13 5.06
5.13 5.05
5.13 5.04
5.13 5.03
5.13 5.02
5.13 5.01
5.12 5.01
5.12 5.01
5.12 5.00
5.12 4.99
5.11 4.97
5.11 4.96
5.11 4.95
5.10 4.94
5.09 4.93
5.09 4.93
5.08 4.92
5.08 4.92
5.08 4.92
5.08 4.92
5.08 4.91
5.08 4.91
5.08 4.90
5.07 4.89
5.06 4.89
5.05 4.90
5.05 4.91
5.06 4.95
5.09 5.00
5.11 5.00
5.11 5.00
5.11 5.00
5.12 5.01
5.12 5.01
5.12 5.00
5.12 4.99
5.12 4.98
5.12 4.98
5.12 4.99
5.11 4.99
5.10 4.99
5.06 5.02
4.98 5.09
4.96 5.21
5.02 5.30
5.18 5.33
5.45 5.28
5.65 5.26
5.64 5.19
5.42 5.28
5.18 5.16
5.16 4.66
5.16 4.56
5.11 4.59
5.13 4.64
5.13 4.79
5.11 4.90
5.09 4.89
5.07 4.87
5.06 4.86
5.06 4.86
5.05 4.89
5.06 4.91
5.08 4.95
5.11 4.99
5.11 5.00
5.12 5.01
5.12 5.01
5.12 4.99
5.12 4.98
5.13 4.96
5.13 4.95
5.13 4.95
5.13 4.94
5.13 4.93
5.13 4.91
5.12 4.90
5.12 4.89
5.12 4.89
5.12 4.89
5.12 4.89
5.12 4.88
5.12 4.89
5.12 4.90
5.12 4.90
5.12 4.92
5.12 4.95
5.11 4.97
5.11 4.99
5.11 5.01
5.11 5.02
5.11 5.04
5.11 5.05
5.11 5.05
5.11 5.06
5.11 5.07
5.11 5.07
5.12 5.10
5.13 5.14
5.14 5.17
5.15 5.18
5.16 5.18
5.17 5.18
5.16 5.18
5.16 5.17
5.16 5.16
5.16 5.14
5.15 5.12
5.15 5.10
5.15 5.07
5.14 5.05
5.14 5.05
5.14 5.04
5.13 5.00
5.12 4.97
5.12 4.95
5.12 4.93
5.12 4.91
5.12 4.90
5.11 4.90
5.10 4.90
5.10 4.91
5.09 4.92
5.09 4.94
5.09 4.94
5.08 4.94
5.08 4.96
5.09 4.98
5.07 5.01
5.03 5.09
5.01 5.28
5.05 5.44
5.16 5.55
5.37 5.54
5.61 5.51
5.68 5.38
5.56 5.28
5.36 4.99
5.32 4.69
5.31 4.71
5.26 4.84
5.24 4.95
5.18 5.03
5.15 5.00
5.14 4.97
5.13 4.97
5.12 4.97
5.11 4.96
5.10 4.94
5.10 4.91
5.09 4.89
5.08 4.89
5.09 4.88
5.09 4.87
5.07 4.86
5.05 4.84
5.05 4.84
5.05 4.84
5.05 4.85
5.05 4.88
5.06 4.89
5.08 4.92
5.08 4.94
5.08 4.96
5.08 4.97
5.09 4.97
5.09 4.98
5.09 5.00
5.10 5.01
5.10 5.01
5.11 5.01
5.11 5.02
5.12 5.04
5.12 5.05
5.12 5.07
5.12 5.08
5.12 5.08
5.13 5.08
5.13 5.10
5.13 5.11
5.14 5.11
5.14 5.13
5.15 5.14
5.15 5.14
5.16 5.15
5.16 5.16
5.15 5.16
5.15 5.15
5.14 5.15
5.14 5.14
5.14 5.14
5.15 5.15
5.16 5.15
5.14 5.13
5.13 5.12
5.12 5.10
5.12 5.10
5.11 5.09
5.11 5.09
5.10 5.09
5.10 5.08
5.10 5.07
5.09 5.06
5.09 5.05
5.09 5.04
5.09 5.03
5.09 5.02
5.09 5.01
5.09 5.01
5.10 5.00
5.09 4.97
5.09 4.95
5.09 4.94
5.09 4.94
5.10 4.93
5.09 4.93
5.09 4.91
5.09 4.92
5.09 4.92
5.09 4.93
5.10 4.96
5.12 5.00
5.12 5.03
5.12 5.05
5.12 5.08
5.09 5.13
5.05 5.26
5.05 5.46
5.09 5.58
5.24 5.60
5.45 5.50
5.63 5.32
5.62 5.22
5.41 5.34
5.18 5.23
5.15 4.75
5.19 4.60
5.13 4.67
5.15 4.72
5.16 4.88
5.13 4.98
5.10 4.97
5.09 4.93
5.07 4.92
5.05 4.90
5.06 4.90
5.06 4.91
5.07 4.92
5.08 4.92
5.09 4.92
5.09 4.91
5.09 4.91
5.09 4.90
5.09 4.89
5.09 4.90
5.09 4.91
5.09 4.92
5.10 4.93
5.10 4.94
5.11 4.95
5.11 4.96
5.11 4.97
5.12 4.97
5.12 4.99
5.12 5.01
5.13 5.02
5.13 5.04
5.13 5.06
5.13 5.08
5.14 5.09
5.14 5.10
5.14 5.13
5.15 5.15
5.13 5.16
5.13 5.17
5.13 5.18
5.13 5.18
5.13 5.19
5.14 5.20
5.14 5.20
5.14 5.19
5.14 5.19
5.14 5.18
5.14 5.17
5.14 5.16
5.14 5.15
5.13 5.13
5.13 5.12
5.12 5.10
5.12 5.07
5.11 5.06
5.10 5.05
5.09 5.04
5.09 5.04
5.09 5.04
5.09 5.04
5.09 5.03
5.09 5.03
5.08 5.02
5.08 5.02
5.08 5.03
5.08 5.04
5.08 5.05
5.09 5.07
5.10 5.08
5.10 5.09
5.10 5.09
5.10 5.08
5.10 5.06
5.09 5.05
5.08 5.04
5.09 5.04
5.09 5.04
5.09 5.03
5.08 5.03
5.08 5.02
5.08 5.01
5.09 5.00
5.08 5.00
5.08 5.00
5.08 5.01
5.05 5.04
5.00 5.15
5.01 5.36
5.07 5.53
5.19 5.61
5.42 5.56
5.62 5.45
5.65 5.32
5.48 5.35
5.26 5.07
5.20 4.60
5.19 4.55
5.14 4.65
5.17 4.76
5.16 4.93
5.13 4.98
5.11 4.95
5.10 4.94
5.09 4.92
5.09 4.93
5.09 4.93
5.09 4.93
5.07 4.92
5.06 4.93
5.06 4.93
5.06 4.93
5.05 4.93
5.05 4.93
5.05 4.93
5.05 4.93
5.05 4.93
5.06 4.92
5.06 4.92
5.06 4.92
5.06 4.92
5.07 4.94
5.07 4.95
5.08 4.96
5.08 4.98
5.09 4.99
5.10 5.00
5.11 5.02
5.12 5.03
5.15 5.07
5.16 5.11
5.16 5.12
5.15 5.14
5.15 5.14
5.15 5.14
5.15 5.15
5.15 5.16
5.15 5.16
5.15 5.16
5.15 5.17
5.15 5.19
5.16 5.20
5.16 5.20
5.16 5.20
5.15 5.19
5.15 5.18
5.13 5.17
5.11 5.16
5.10 5.16
5.08 5.14
5.08 5.11
5.07 5.09
5.07 5.07
5.06 5.04
5.06 5.02
5.05 5.01
5.05 4.99
5.06 4.98
5.06 4.99
5.07 5.03
5.09 5.06
5.10 5.08
5.10 5.08
5.10 5.08
5.11 5.07
5.11 5.06
5.11 5.06
5.11 5.06
5.11 5.05
5.11 5.05
5.11 5.05
5.11 5.06
5.10 5.06
5.10 5.05
5.10 5.04
5.09 5.04
5.09 5.03
5.08 5.02
5.08 5.01
5.08 5.00
5.08 4.99
5.09 4.97
5.09 4.97
5.08 4.97
5.08 4.97
5.08 4.98
5.08 4.98
5.07 4.99
5.06 4.99
5.06 5.00
5.07 5.02
5.07 5.05
5.07 5.05
5.07 5.05
5.07 5.04
5.07 5.04
5.07 5.03
5.07 5.03
5.07 5.03
5.07 5.04
5.07 5.04
5.07 5.03
5.07 5.03
5.06 5.03
5.06 5.03
5.06 5.02
5.06 5.02
5.06 5.02
5.06 5.03
5.07 5.03
5.08 5.04
5.09 5.04
5.10 5.05
5.10 5.06
5.11 5.03
5.10 5.00
5.10 4.98
5.11 4.95
5.10 4.94
5.09 4.97
5.08 4.98
5.07 4.99
5.07 5.00
5.07 5.00
5.07 5.00
5.06 5.01
5.06 5.01
5.06 5.01
5.05 5.01
5.05 5.02
5.05 5.03
5.05 5.03
5.05 5.04
5.05 5.04
5.05 5.05
5.05 5.04
5.05 5.04
5.05 5.03
5.05 5.01
5.04 4.99
5.04 4.98
5.05 4.98
5.05 4.98
5.04 4.96
5.04 4.97
5.06 4.97
5.07 4.96
5.08 4.97
5.08 4.96
5.08 4.95
5.08 4.94
5.08 4.93
5.08 4.95
5.10 4.98
5.09 5.00
5.08 5.01
5.07 5.03
5.06 5.03
5.02 5.09
4.94 5.19
4.93 5.32
5.01 5.41
5.19 5.45
5.46 5.41
5.68 5.42
5.67 5.34
5.44 5.40
5.20 5.20
5.18 4.68
5.17 4.57
5.10 4.61
5.12 4.65
5.13 4.80
5.11 4.94
5.09 4.97
5.08 4.96
5.07 4.95
5.06 4.94
5.06 4.93
5.06 4.92
5.06 4.92
5.07 4.93
5.08 4.92
5.08 4.91
5.08 4.90
5.08 4.89
5.08 4.91
5.09 4.95
5.10 4.97
5.09 4.98
5.09 4.99
5.08 4.99
5.08 5.01
5.08 5.02
5.08 5.03
5.08 5.04
5.08 5.05
5.08 5.07
5.09 5.08
5.09 5.09
5.08 5.09
5.09 5.09
5.09 5.10
5.09 5.10
5.08 5.10
5.08 5.10
5.08 5.11
5.09 5.12
5.09 5.13
5.10 5.14
5.10 5.14
5.10 5.14
5.11 5.14
5.12 5.14
5.12 5.14
5.13 5.13
5.13 5.12
5.15 5.11
5.15 5.10
5.16 5.08
5.16 5.08
5.16 5.08
5.16 5.09
5.14 5.11
5.14 5.13
5.13 5.13
5.13 5.12
5.12 5.11
5.12 5.10
5.11 5.10
5.11 5.09
5.11 5.08
5.11 5.09
5.11 5.09
5.11 5.09
5.11 5.10
5.10 5.09
5.10 5.08
5.10 5.08
5.10 5.08
5.09 5.08
5.09 5.07
5.09 5.08
5.09 5.08
5.09 5.09
5.09 5.09
5.09 5.10
5.09 5.10
5.07 5.11
5.01 5.16
5.00 5.30
5.05 5.39
5.20 5.48
5.43 5.48
5.68 5.44
5.72 5.41
5.51 5.48
5.28 5.26
5.27 4.75
5.21 4.70
5.14 4.76
5.15 4.85
5.15 4.99
5.11 5.02
5.10 4.99
5.09 4.98
5.08 4.97
5.08 4.96
5.08 4.96
5.08 4.96
5.08 4.95
5.08 4.94
5.08 4.94
5.08 4.94
5.08 4.94
5.08 4.94
5.07 4.94
5.07 4.94
5.07 4.93
5.07 4.94
5.07 4.94
5.07 4.96
5.07 4.96
5.08 4.97
5.09 4.99
5.09 5.00
5.09 5.01
5.09 5.02
5.09 5.02
5.09 5.03
5.09 5.02
5.08 5.03
5.08 5.04
5.07 5.06
5.07 5.07
5.07 5.08
5.06 5.08
5.06 5.09
5.06 5.09
5.07 5.10
5.07 5.12
5.07 5.13
5.07 5.14
5.07 5.14
5.08 5.15
5.08 5.15
5.09 5.15
5.09 5.14
5.08 5.13
5.08 5.11
5.08 5.10
5.08 5.10
5.08 5.10
5.09 5.08
5.08 5.06
5.08 5.05
5.09 5.04
5.08 5.03
5.09 5.03
5.09 5.03
5.09 5.03
5.10 5.03
5.11 5.03
5.11 5.03
5.10 5.01
5.09 5.01
5.08 5.02
5.08 5.03
5.07 5.03
5.07 5.04
5.07 5.05
5.07 5.05
5.07 5.05
5.07 5.05
5.07 5.05
5.07 5.05
5.07 5.05
5.07 5.05
5.07 5.06
5.07 5.05
5.07 5.05
5.07 5.05
5.08 5.06
5.07 5.06
5.08 5.05
5.08 5.05
5.08 5.04
5.08 5.04
5.08 5.05
5.08 5.06
5.08 5.05
5.05 5.05
4.98 5.10
4.95 5.23
4.98 5.33
5.10 5.36
5.35 5.35
5.59 5.28
5.67 5.20
5.52 5.23
5.23 5.32
5.08 4.96
5.15 4.55
5.09 4.57
5.08 4.61
5.11 4.72
5.11 4.89
5.08 4.97
5.06 4.96
5.05 4.95
5.05 4.94
5.04 4.94
5.04 4.95
5.04 4.96
5.04 4.97
5.04 4.97
5.05 4.97
5.04 4.97
5.04 4.97
5.05 4.98
5.04 4.99
5.05 4.99
5.05 5.00
5.06 5.00
5.06 5.01
5.07 5.02
5.07 5.03
5.07 5.03
5.07 5.03
5.07 5.03
5.07 5.03
5.07 5.03
5.07 5.03
5.08 5.03
5.08 5.04
5.08 5.06
5.07 5.07
5.08 5.06
5.08 5.06
5.08 5.08
5.08 5.10
5.09 5.12
5.10 5.12
5.10 5.12
5.10 5.13
5.11 5.14
5.12 5.15
5.14 5.15
5.15 5.16
5.16 5.18
5.16 5.17
5.16 5.19
5.16 5.20
5.16 5.19
5.15 5.18
5.15 5.17
5.14 5.15
5.13 5.14
5.12 5.12
5.12 5.11
5.11 5.10
5.12 5.10
5.12 5.10
5.12 5.11
5.11 5.11
5.10 5.11
5.10 5.11
5.09 5.10
5.08 5.09
5.07 5.08
5.07 5.08
5.07 5.07
5.06 5.06
5.06 5.07
5.06 5.06
5.06 5.05
5.06 5.05
5.06 5.03
5.06 5.02
5.06 5.01
5.06 4.99
5.05 4.97
5.05 4.95
5.05 4.93
5.04 4.93
5.05 4.95
5.06 4.98
5.08 5.01
5.09 5.03
5.10 5.04
5.10 5.05
5.10 5.05
5.10 5.04
5.10 5.04
5.10 5.05
5.10 5.06
5.10 5.05
5.10 5.05
5.10 5.05
5.09 5.05
5.10 5.04
5.09 5.03
5.07 5.04
5.07 5.05
5.06 5.06
5.06 5.06
5.06 5.06
5.05 5.05
5.05 5.06
5.05 5.06
5.04 5.05
5.04 5.03
5.03 5.03
5.03 5.03
5.02 5.03
5.01 5.02
5.02 5.04
5.03 5.07
5.06 5.08
5.06 5.11
5.06 5.11
5.06 5.11
5.07 5.11
5.07 5.10
5.07 5.08
5.08 5.05
5.08 5.02
5.08 5.01
5.07 5.00
5.07 5.00
5.08 5.00
5.08 5.00
5.08 5.00
5.08 5.00
5.08 4.99
5.07 4.98
5.07 4.99
5.07 4.99
5.07 4.99
5.07 4.99
5.05 4.97
5.04 4.96
5.04 4.96
5.04 4.96
5.03 4.97
5.02 4.98
5.01 4.98
5.00 4.98
5.00 5.01
4.99 5.03
4.94 5.09
4.89 5.24
4.92 5.41
5.02 5.48
5.22 5.49
5.48 5.43
5.65 5.40
5.60 5.34
5.36 5.39
5.16 5.10
5.19 4.63
5.15 4.61
5.12 4.68
5.15 4.74
5.14 4.90
5.12 4.96
5.10 4.95
5.09 4.93
5.08 4.93
5.08 4.93
5.08 4.93
5.07 4.93
5.07 4.93
5.07 4.93
5.07 4.93
5.07 4.94
5.07 4.93
5.06 4.93
5.04 4.91
5.03 4.89
5.02 4.89
5.02 4.92
5.03 4.95
5.03 4.97
5.04 5.01
5.05 5.04
5.06 5.06
5.06 5.07
5.07 5.07
5.07 5.07
5.08 5.06
5.08 5.06
5.09 5.06
5.09 5.06
5.10 5.06
5.10 5.05
5.10 5.05
5.11 5.04
5.11 5.04
5.11 5.04
5.11 5.04
5.11 5.04
5.12 5.05
5.12 5.06
5.12 5.08
5.13 5.09
5.13 5.10
5.13 5.12
5.14 5.15
5.13 5.17
5.13 5.17
5.12 5.15
5.12 5.15
5.11 5.13
5.11 5.11
5.09 5.11
5.09 5.13
5.09 5.14
5.09 5.16
5.09 5.17
5.09 5.16
5.10 5.15
5.10 5.14
5.10 5.13
5.10 5.11
5.10 5.10
5.10 5.09
5.10 5.09
5.11 5.09
5.11 5.08
5.11 5.08
5.11 5.07
5.10 5.07
5.10 5.06
5.11 5.06
5.10 5.06
5.10 5.04
5.10 5.04
5.10 5.04
5.10 5.03
5.09 5.03
5.09 5.03
5.08 5.03
5.08 5.03
5.08 5.02
5.07 5.01
5.07 5.00
5.06 5.01
5.07 5.03
5.08 5.06
5.08 5.08
5.07 5.09
5.06 5.09
5.06 5.09
5.07 5.10
5.07 5.10
5.08 5.09
5.08 5.07
5.08 5.06
5.09 5.06
5.09 5.05
5.09 5.03
5.09 5.03
5.09 5.03
5.08 5.02
5.08 5.02
5.08 5.01
5.08 5.01
5.08 5.00
5.08 4.99
5.08 4.99
5.08 4.98
5.08 4.99
5.08 4.99
5.07 4.99
5.07 4.99
5.06 4.99
5.06 4.98
5.05 4.98
5.04 4.97
5.04 4.94
5.03 4.91
5.03 4.92
5.04 4.97
5.05 5.00
5.06 5.04
5.06 5.08
5.07 5.08
5.07 5.09
5.06 5.09
5.07 5.08
5.07 5.07
5.07 5.07
5.07 5.06
5.06 5.07
5.02 5.11
4.94 5.19
4.93 5.32
5.00 5.42
5.18 5.47
5.44 5.41
5.64 5.37
5.62 5.26
5.40 5.32
5.18 5.07
5.17 4.56
5.15 4.50
5.11 4.56
5.14 4.65
5.14 4.83
5.11 4.91
5.09 4.89
5.07 4.87
5.06 4.85
5.04 4.85
5.03 4.86
5.04 4.91
5.06 4.97
5.07 4.98
5.08 4.99
5.08 4.99
5.09 5.01
5.09 5.00
5.08 5.01
5.08 5.02
5.08 5.03
5.08 5.03
5.08 5.03
5.08 5.03
5.08 5.03
5.08 5.03
5.08 5.03
5.08 5.03
5.08 5.03
5.08 5.03
5.08 5.04
5.09 5.05
5.09 5.06
5.10 5.06
5.10 5.07
5.11 5.08
5.11 5.08
5.11 5.09
5.11 5.09
5.11 5.10
5.11 5.10
5.12 5.10
5.12 5.10
5.11 5.08
5.10 5.06
5.10 5.08
5.10 5.09
5.11 5.12
5.13 5.16
5.14 5.17
5.14 5.18
5.15 5.18
5.15 5.16
5.15 5.14
5.15 5.13
5.13 5.11
5.12 5.11
5.11 5.10
5.10 5.09
5.09 5.09
5.09 5.08
5.09 5.07
5.08 5.06
5.08 5.06
5.08 5.05
5.07 5.04
5.07 5.03
5.07 5.02
5.07 5.01
5.07 5.00
5.07 4.99
5.07 4.99
5.07 4.98
5.07 4.97
5.07 4.95
5.06 4.93
5.06 4.91
5.06 4.91
5.06 4.93
5.08 4.96
5.08 4.99
5.09 4.99
5.10 5.01
5.10 5.01
5.10 5.02
5.11 5.03
5.10 5.03
5.10 5.04
5.10 5.04
5.11 5.06
5.12 5.05
5.11 5.04
5.10 5.04
5.10 5.05
5.10 5.05
5.09 5.06
5.09 5.06
5.08 5.06
5.08 5.05
5.07 5.05
5.07 5.04
5.06 5.02
5.06 5.00
5.04 4.99
5.04 4.96
5.04 4.97
5.05 4.99
5.07 5.03
5.07 5.04
5.07 5.03
5.07 5.03
5.06 5.03
5.00 5.07
4.93 5.17
4.94 5.29
5.04 5.34
5.26 5.36
5.52 5.29
5.65 5.27
5.57 5.24
5.34 5.25
5.19 4.82
5.22 4.44
5.16 4.51
5.15 4.55
5.16 4.69
5.14 4.84
5.10 4.88
5.09 4.88
5.07 4.89
5.06 4.90
5.06 4.91
5.06 4.92
5.07 4.93
5.08 4.96
5.09 5.00
5.10 5.04
5.10 5.05
5.11 5.05
5.11 5.05
5.10 5.05
5.11 5.05
5.11 5.04
5.10 5.02
5.10 5.01
5.10 4.99
5.10 4.99
5.10 4.98
5.10 4.98
5.11 4.98
5.12 4.99
5.12 5.00
5.13 5.01
5.13 5.01
5.13 5.02
5.14 5.03
5.14 5.05
5.15 5.06
5.15 5.06
5.15 5.07
5.15 5.06
5.15 5.07
5.16 5.09
5.16 5.11
5.16 5.13
5.16 5.13
5.16 5.14
5.15 5.15
5.16 5.15
5.15 5.15
5.15 5.16
5.15 5.17
5.14 5.16
5.14 5.16
5.13 5.16
5.13 5.16
5.13 5.14
5.12 5.12
5.11 5.11
5.11 5.09
5.10 5.08
5.09 5.06
5.09 5.05
5.08 5.04
5.08 5.03
5.08 5.02
5.09 5.01
5.09 5.00
5.09 5.00
5.09 4.98
5.10 4.98
5.11 4.98
5.11 4.99
5.11 4.98
5.11 4.98
5.11 4.98
5.11 4.97
5.11 4.96
5.11 4.96
5.10 4.96
5.09 4.95
5.09 4.95
5.08 4.96
5.08 4.97
5.08 4.98
5.09 4.99
5.09 5.01
5.07 5.03
5.03 5.11
5.00 5.26
5.02 5.45
5.12 5.58
5.29 5.61
5.54 5.54
5.65 5.41
5.57 5.43
5.34 5.33
5.22 4.88
5.23 4.65
5.15 4.72
5.15 4.74
5.15 4.88
5.13 4.96
5.11 4.94
5.11 4.90
5.10 4.88
5.10 4.88
5.09 4.87
5.10 4.86
5.09 4.84
5.09 4.83
5.10 4.82
5.10 4.81
5.10 4.81
5.09 4.81
5.08 4.83
5.08 4.84
5.08 4.85
5.08 4.86
5.08 4.87
5.08 4.89
5.09 4.91
5.09 4.92
5.08 4.94
5.08 4.96
5.08 4.98
5.08 4.99
5.08 5.01
5.08 5.02
5.08 5.03
5.08 5.04
5.08 5.07
5.09 5.10
5.09 5.13
5.10 5.16
5.10 5.18
5.11 5.21
5.11 5.23
5.11 5.23
5.11 5.23
5.12 5.21
5.13 5.19
5.14 5.18
5.14 5.16
5.14 5.14
5.14 5.12
5.15 5.10
5.14 5.07
5.14 5.06
5.13 5.04
5.13 5.03
5.12 5.03
5.12 5.01
5.11 4.99
5.11 4.98
5.10 4.96
5.09 4.94
5.09 4.94
5.08 4.94
5.08 4.94
5.08 4.94
5.08 4.93
5.07 4.93
5.07 4.93
5.06 4.92
5.06 4.93
5.05 4.94
5.06 4.96
5.07 4.97
5.09 5.01
5.10 5.03
5.11 5.03
5.11 5.03
5.10 5.03
5.10 5.03
5.10 5.03
5.10 5.01
5.09 5.00
5.09 4.99
5.09 4.98
5.09 4.96
5.08 4.95
5.08 4.95
5.08 4.95
5.08 4.95
5.08 4.95
5.09 4.94
5.08 4.94
5.08 4.94
5.09 4.95
5.09 4.96
5.09 4.95
5.08 4.95
5.08 4.94
5.07 4.93
5.07 4.94
5.08 4.97
5.08 4.99
5.09 5.02
5.10 5.03
5.10 5.04
5.11 5.04
5.10 5.04
5.10 5.04
5.10 5.03
5.11 5.02
5.10 5.00
5.10 4.99
5.10 4.97
5.10 4.95
5.09 4.92
5.08 4.89
5.07 4.87
5.07 4.87
5.06 4.87
5.05 4.88
5.05 4.89
5.05 4.89
5.04 4.90
5.03 4.89
5.03 4.90
5.04 4.90
5.04 4.91
5.05 4.90
5.05 4.89
5.04 4.87
5.04 4.87
5.04 4.90
5.07 4.94
5.09 4.97
5.10 5.00
5.10 5.00
5.10 5.00
5.11 5.00
5.11 5.00
5.12 5.00
5.12 5.01
5.12 5.02
5.12 5.02
5.12 5.01
5.12 5.00
5.12 5.00
5.12 5.00
5.09 5.01
5.01 5.07
4.96 5.18
4.98 5.31
5.10 5.37
5.33 5.38
5.59 5.34
5.68 5.30
5.53 5.29
5.26 5.26
5.12 4.78
5.16 4.42
5.08 4.45
5.07 4.49
5.09 4.59
5.09 4.76
5.07 4.85
5.07 4.86
5.07 4.90
5.08 4.93
5.08 4.94
5.09 4.95
5.09 4.95
5.10 4.95
5.10 4.95
5.10 4.95
5.11 4.95
5.11 4.94
5.11 4.94
5.11 4.93
5.11 4.93
5.11 4.93
5.11 4.93
5.11 4.93
5.11 4.92
5.10 4.92
5.10 4.91
5.10 4.91
5.10 4.90
5.09 4.90
5.07 4.90
5.07 4.90
5.07 4.89
5.07 4.89
5.07 4.90
5.07 4.93
5.09 4.97
5.10 5.00
5.11 5.01
5.11 5.01
5.12 5.02
5.12 5.03
5.13 5.03
5.13 5.05
5.14 5.07
5.15 5.09
5.16 5.10
5.17 5.10
5.18 5.10
5.18 5.12
5.18 5.13
5.17 5.13
5.17 5.12
5.17 5.11
5.16 5.10
5.15 5.09
5.15 5.07
5.13 5.05
5.12 5.04
5.12 5.03
5.11 5.03
5.11 5.03
5.11 5.03
5.11 5.04
5.11 5.04
5.11 5.04
5.11 5.03
5.10 5.02
5.10 5.02
5.10 5.02
5.10 5.02
5.11 5.01
5.11 5.01
5.11 4.99
5.11 4.97
5.11 4.95
5.11 4.95
5.11 4.93
5.11 4.92
5.10 4.92
5.10 4.91
5.11 4.92
5.10 4.91
5.11 4.92
5.11 4.93
5.11 4.95
5.11 4.95
5.12 4.97
5.12 4.99
5.12 5.00
5.12 5.00
5.12 5.01
5.12 5.01
5.13 5.04
5.13 5.06
5.14 5.06
5.12 5.07
5.10 5.09
5.04 5.18
5.02 5.37
5.06 5.51
5.18 5.54
5.38 5.45
5.61 5.29
5.66 5.20
5.47 5.26
5.22 5.12
5.16 4.63
5.18 4.45
5.12 4.52
5.14 4.57
5.15 4.75
5.13 4.86
5.11 4.85
5.10 4.84
5.10 4.84
5.09 4.86
5.09 4.85
5.08 4.84
5.08 4.83
5.08 4.82
5.08 4.83
5.09 4.84
5.09 4.86
5.10 4.88
5.10 4.90
5.11 4.91
5.11 4.92
5.12 4.93
5.12 4.94
5.12 4.96
5.12 4.97
5.12 4.97
5.12 4.98
5.11 4.98
5.11 4.98
5.11 4.98
5.10 5.00
5.11 5.01
5.12 5.03
5.12 5.04
5.13 5.04
5.13 5.05
5.13 5.06
5.13 5.07
5.13 5.08
5.14 5.08
5.14 5.08
5.14 5.09
5.14 5.10
5.14 5.10
5.15 5.11
5.15 5.12
5.16 5.12
5.16 5.12
5.16 5.11
5.15 5.09
5.15 5.07
5.14 5.06
5.14 5.05
5.14 5.04
5.13 5.03
5.12 5.02
5.12 5.02
5.13 5.04
5.13 5.05
5.13 5.03
5.12 5.01
5.10 5.00
5.09 5.00
5.09 5.00
5.09 5.00
5.10 5.00
5.10 5.01
5.10 5.00
5.09 5.00
5.09 4.99
5.10 4.99
5.09 4.98
5.10 4.98
5.10 4.97
5.09 4.96
5.09 4.95
5.09 4.94
5.09 4.94
5.10 4.92
5.09 4.91
5.09 4.90
5.09 4.89
5.09 4.90
5.10 4.91
5.10 4.91
5.10 4.93
5.11 4.98
5.11 4.99
5.11 4.98
5.10 4.99
5.10 4.98
5.09 4.98
5.09 4.96
5.09 4.96
5.09 4.95
5.09 4.95
5.09 4.94
5.09 4.95
5.08 4.96
5.07 4.96
5.07 4.95
5.08 4.95
5.08 4.95
5.07 4.95
5.07 4.95
5.07 4.95
5.07 4.95
5.06 4.96
5.06 4.96
5.06 4.95
5.05 4.94
5.01 4.93
4.93 4.98
4.89 5.08
4.93 5.19
5.07 5.23
5.36 5.25
5.60 5.28
5.66 5.24
5.47 5.30
5.23 5.26
5.16 4.75
5.20 4.52
5.13 4.56
5.14 4.60
5.16 4.74
5.15 4.88
5.13 4.91
5.12 4.90
5.12 4.90
5.11 4.92
5.11 4.93
5.11 4.92
5.11 4.92
5.11 4.92
5.11 4.93
5.10 4.93
5.08 4.92
5.07 4.90
5.06 4.90
5.06 4.89
5.06 4.87
5.06 4.87
5.06 4.88
5.06 4.87
5.06 4.87
5.07 4.88
5.08 4.91
5.09 4.93
5.10 4.94
5.11 4.96
5.11 4.97
5.12 4.98
5.13 4.99
5.13 5.00
5.14 5.01
5.14 5.01
5.15 5.01
5.15 5.01
5.15 5.02
5.15 5.03
5.15 5.03
5.15 5.04
5.16 5.06
5.16 5.07
5.16 5.09
5.17 5.10
5.16 5.11
5.16 5.11
5.16 5.11
5.16 5.11
5.16 5.13
5.16 5.14
5.16 5.14
5.16 5.15
5.16 5.15
5.15 5.14
5.14 5.12
5.12 5.10
5.11 5.09
5.10 5.08
5.10 5.07
5.09 5.05
5.09 5.04
5.08 5.03
5.08 5.01
5.09 4.99
5.09 4.98
5.09 4.97
5.09 4.95
5.09 4.95
5.09 4.93
5.09 4.93
5.09 4.92
5.09 4.92
5.09 4.92
5.10 4.90
5.10 4.89
5.10 4.90
5.10 4.92
5.09 4.96
5.06 5.04
5.04 5.19
5.08 5.38
5.18 5.48
5.37 5.49
5.61 5.43
5.70 5.29
5.61 5.24
5.41 5.00
5.33 4.73
5.32 4.69
5.25 4.87
5.23 4.95
5.17 5.01
5.12 4.97
5.10 4.93
5.09 4.92
5.09 4.92
5.08 4.89
5.07 4.88
5.07 4.88
5.07 4.88
5.07 4.88
5.07 4.88
5.07 4.88
5.06 4.86
5.06 4.85
5.07 4.85
5.07 4.87
5.07 4.87
5.07 4.87
5.07 4.88
5.08 4.89
5.09 4.89
5.09 4.90
5.09 4.91
5.08 4.93
5.09 4.94
5.09 4.95
5.09 4.97
5.09 4.98
5.09 4.98
5.09 4.99
5.09 4.98
5.10 4.98
5.10 4.99
5.10 5.00
5.11 5.01
5.11 5.01
5.11 5.03
5.11 5.05
5.11 5.06
5.11 5.07
5.11 5.08
5.12 5.10
5.12 5.12
5.13 5.13
5.13 5.13
5.13 5.13
5.13 5.12
5.13 5.12
5.12 5.11
5.12 5.10
5.12 5.09
5.12 5.07
5.11 5.05
5.10 5.05
5.10 5.03
5.09 5.02
5.09 5.01
5.09 5.01
5.08 5.00
5.09 4.99
5.09 5.01
5.09 5.01
5.09 5.01
5.10 5.02
5.10 5.02
5.10 5.02
5.11 5.01
5.11 5.00
5.11 4.99
5.10 4.97
5.10 4.97
5.09 4.98
5.10 4.98
5.10 4.98
5.10 4.97
5.10 4.97
5.10 4.97
5.10 4.96
5.10 4.96
5.10 4.96
5.10 4.96
5.10 4.95
5.10 4.95
5.10 4.95
5.10 4.95
5.09 4.95
5.09 4.95
5.09 4.95
5.09 4.96
5.09 4.96
5.09 4.97
5.08 4.96
5.07 4.97
5.07 4.96
5.07 4.96
5.07 4.97
5.07 4.97
5.07 4.97
5.07 4.96
5.06 4.96
5.03 4.98
4.95 5.04
4.92 5.16
4.96 5.25
5.11 5.30
5.36 5.32
5.60 5.35
5.65 5.33
5.45 5.38
5.19 5.31
5.14 4.82
5.18 4.62
5.13 4.66
5.15 4.69
5.16 4.82
5.15 4.95
5.13 4.98
5.11 4.95
5.11 4.95
5.10 4.95
5.10 4.95
5.10 4.96
5.10 4.96
5.10 4.96
5.10 4.96
5.09 4.95
5.09 4.94
5.09 4.92
5.09 4.90
5.08 4.89
5.08 4.87
5.08 4.87
5.08 4.87
5.07 4.87
5.08 4.88
5.07 4.87
5.07 4.88
5.06 4.90
5.07 4.93
5.08 4.94
5.09 4.95
5.09 4.96
5.10 4.97
5.11 5.00
5.11 5.03
5.11 5.05
5.11 5.07
5.12 5.08
5.12 5.09
5.12 5.11
5.12 5.11
5.13 5.12
5.13 5.13
5.14 5.14
5.14 5.15
5.15 5.15
5.16 5.15
5.16 5.16
5.16 5.15
5.16 5.14
5.16 5.14
5.16 5.12
5.15 5.09
5.15 5.07
5.14 5.04
5.13 5.03
5.13 5.01
5.13 5.00
5.13 4.99
5.12 4.97
5.12 4.97
5.11 4.97
5.10 4.97
5.09 4.98
5.09 5.00
5.09 5.01
5.09 5.02
5.08 5.03
5.09 5.03
5.09 5.04
5.09 5.04
5.09 5.05
5.10 5.04
5.09 5.03
5.09 5.03
5.10 5.03
5.09 5.02
5.08 5.02
5.09 5.03
5.08 5.03
5.09 5.03
5.09 5.03
5.09 5.03
5.10 5.02
5.10 5.02
5.10 5.02
5.09 5.02
5.09 5.00
5.09 4.99
5.08 4.98
5.08 4.98
5.08 4.97
5.07 4.97
5.07 4.97
5.07 4.97
5.07 4.97
5.07 4.97
5.08 4.97
5.08 4.98
5.08 4.98
5.07 4.98
5.07 4.99
5.08 5.00
5.08 5.00
5.08 5.00
5.08 4.99
5.08 4.99
5.08 5.00
5.08 5.00
5.09 5.01
5.08 5.02
5.08 5.03
5.08 5.03
5.08 5.02
5.08 5.02
5.08 5.01
5.08 5.00
5.08 4.99
5.08 4.98
5.08 4.98
5.09 4.97
5.08 4.95
5.08 4.93
5.07 4.92
5.07 4.92
5.06 4.90
5.06 4.90
5.06 4.91
5.06 4.91
5.06 4.93
5.06 4.94
5.07 4.96
5.05 4.98
4.99 5.05
4.94 5.17
4.96 5.32
5.08 5.41
5.32 5.44
5.58 5.40
5.67 5.34
5.56 5.32
5.32 5.36
5.16 4.97
5.20 4.57
5.14 4.62
5.12 4.66
5.15 4.77
5.14 4.95
5.12 5.01
5.10 4.99
5.10 4.98
5.09 4.99
5.09 4.98
5.08 4.99
5.08 4.98
5.08 4.98
5.07 4.97
5.07 4.96
5.07 4.96
5.07 4.96
5.07 4.95
5.07 4.95
5.07 4.94
5.07 4.94
5.07 4.94
5.08 4.93
5.09 4.92
5.09 4.92
5.10 4.94
5.11 4.95
5.11 4.94
5.11 4.96
5.11 4.98
5.12 4.99
5.11 5.00
5.11 4.99
5.11 5.00
5.11 5.01
5.11 5.02
5.11 5.03
5.11 5.03
5.11 5.04
5.11 5.05
5.11 5.07
5.11 5.09
5.12 5.10
5.13 5.11
5.13 5.12
5.13 5.13
5.13 5.13
5.14 5.13
5.14 5.14
5.15 5.13
5.15 5.14
5.15 5.14
5.14 5.13
5.13 5.12
5.12 5.10
5.12 5.08
5.11 5.07
5.11 5.07
5.10 5.06
5.09 5.05
5.09 5.04
5.09 5.04
5.08 5.03
5.08 5.01
5.07 5.00
5.07 4.99
5.07 4.99
5.07 5.00
5.08 5.00
5.08 5.00
5.09 5.00
5.09 4.99
5.09 4.99
5.09 4.99
5.10 5.00
5.10 5.01
5.11 5.03
5.11 5.03
5.11 5.03
5.11 5.05
5.11 5.06
5.10 5.06
5.09 5.07
5.06 5.09
5.01 5.17
5.03 5.34
5.09 5.47
5.26 5.56
5.50 5.52
5.71 5.44
5.67 5.37
5.47 5.31
5.30 4.91
5.29 4.63
5.22 4.73
5.19 4.82
5.18 4.97
5.14 5.06
5.11 5.02
5.10 4.99
5.07 4.96
5.06 4.92
5.05 4.89
5.05 4.87
5.05 4.87
5.05 4.88
5.05 4.89
5.06 4.90
5.06 4.90
5.06 4.90
5.06 4.90
5.06 4.90
5.06 4.90
5.07 4.90
5.07 4.90
5.08 4.91
5.09 4.92
5.09 4.93
5.09 4.93
5.10 4.94
5.11 4.96
5.11 4.97
5.11 4.98
5.11 5.00
5.11 5.01
5.12 5.03
5.12 5.04
5.13 5.04
5.13 5.04
5.12 5.06
5.11 5.06
5.11 5.07
5.11 5.08
5.10 5.09
5.11 5.11
5.11 5.14
5.11 5.16
5.10 5.16
5.09 5.17
5.09 5.18
5.10 5.18
5.10 5.18
5.10 5.16
5.10 5.14
5.09 5.11
5.09 5.09
5.09 5.07
5.09 5.05
5.08 5.03
5.08 5.01
5.08 5.00
5.08 4.99
5.07 4.98
5.08 4.98
5.08 5.00
5.09 5.01
5.10 5.02
5.11 5.03
5.11 5.02
5.12 5.02
5.12 5.02
5.12 5.02
5.12 5.02
5.13 5.02
5.13 5.02
5.13 5.01
5.13 5.00
5.13 5.00
5.13 5.00
5.12 5.00
5.12 5.00
5.11 4.99
5.10 4.99
5.09 5.00
5.09 4.99
5.08 4.97
5.07 4.97
5.06 4.99
5.06 5.01
5.06 5.03
5.06 5.03
5.06 5.04
5.06 5.05
5.07 5.05
5.06 5.03
5.06 5.02
5.06 5.00
5.07 4.98
5.07 4.97
5.07 4.95
5.06 4.93
5.07 4.92
5.06 4.91
5.07 4.90
5.07 4.89
5.06 4.90
5.02 4.94
4.95 5.03
4.93 5.15
4.98 5.23
5.15 5.25
5.41 5.22
5.63 5.20
5.64 5.13
5.42 5.24
5.18 5.18
5.15 4.71
5.17 4.53
5.10 4.57
5.12 4.61
5.14 4.75
5.13 4.90
5.10 4.95
5.10 4.94
5.08 4.93
5.07 4.94
5.06 4.96
5.05 4.96
5.05 4.95
5.04 4.95
5.04 4.95
5.04 4.95
5.04 4.93
5.04 4.93
5.03 4.92
5.03 4.91
5.04 4.91
5.05 4.91
5.06 4.91
5.07 4.91
5.07 4.89
5.07 4.87
5.07 4.86
5.07 4.84
5.07 4.84
5.08 4.85
5.09 4.89
5.10 4.94
5.11 4.98
5.11 4.99
5.12 5.01
5.12 5.03
5.12 5.04
5.12 5.05
5.13 5.07
5.14 5.08
5.14 5.10
5.14 5.11
5.14 5.12
5.15 5.14
5.15 5.14
5.14 5.15
5.14 5.15
5.14 5.16
5.14 5.16
5.14 5.14
5.13 5.13
5.12 5.12
5.12 5.11
5.11 5.10
5.10 5.09
5.10 5.08
5.09 5.05
5.08 5.03
5.07 5.01
5.06 4.99
5.06 4.99
5.06 4.99
5.05 4.98
5.05 4.97
5.05 4.96
5.05 4.96
5.05 4.95
5.05 4.95
5.06 4.95
5.06 4.96
5.06 4.96
5.07 4.97
5.08 4.98
5.09 4.98
5.09 4.99
5.10 4.99
5.11 4.99
5.10 4.99
5.10 4.99
5.10 4.98
5.11 4.97
5.11 4.96
5.09 4.95
5.08 4.94
5.08 4.93
5.07 4.92
5.06 4.93
5.06 4.94
5.05 4.95
5.05 4.95
5.05 4.96
5.05 4.96
5.05 4.96
5.05 4.97
5.05 4.97
5.05 4.98
5.05 4.98
5.05 4.97
5.05 4.97
5.05 4.96
5.05 4.94
5.05 4.93
5.05 4.93
5.05 4.93
5.06 4.92
5.06 4.92
5.06 4.91
5.06 4.90
5.05 4.89
5.05 4.89
5.05 4.89
5.05 4.90
5.02 4.91
4.95 4.97
4.90 5.09
4.93 5.19
5.08 5.24
5.32 5.25
5.57 5.26
5.62 5.20
5.44 5.24
5.19 5.16
5.12 4.69
5.16 4.50
5.10 4.57
5.12 4.62
5.13 4.78
5.12 4.91
5.09 4.94
5.08 4.92
5.08 4.92
5.07 4.92
5.07 4.91
5.06 4.90
5.06 4.89
5.06 4.89
5.05 4.89
5.05 4.88
5.05 4.87
5.04 4.86
5.05 4.86
5.05 4.87
5.06 4.89
5.06 4.89
5.07 4.89
5.07 4.88
5.08 4.88
5.08 4.89
5.09 4.89
5.09 4.88
5.10 4.90
5.11 4.92
5.12 4.92
5.12 4.92
5.11 4.94
5.11 4.95
5.10 4.96
5.10 4.98
5.10 5.00
5.10 5.01
5.10 5.02
5.10 5.03
5.10 5.03
5.10 5.05
5.10 5.06
5.10 5.07
5.10 5.08
5.10 5.08
5.11 5.08
5.11 5.07
5.11 5.06
5.11 5.06
5.10 5.06
5.10 5.05
5.09 5.05
5.10 5.04
5.10 5.04
5.10 5.03
5.10 5.02
5.10 5.00
5.10 4.99
5.10 4.97
5.10 4.96
5.10 4.94
5.11 4.94
5.11 4.95
5.11 4.95
5.11 4.93
5.10 4.93
5.10 4.93
5.09 4.94
5.09 4.95
5.09 4.96
5.08 4.95
5.08 4.94
5.08 4.95
5.08 4.97
5.07 4.97
5.06 4.98
5.06 4.98
5.06 4.97
5.05 4.97
5.05 4.97
5.05 4.97
5.05 4.98
5.06 4.99
5.06 4.99
5.06 4.98
5.05 4.99
5.01 5.04
4.99 5.19
5.04 5.38
5.16 5.48
5.37 5.49
5.63 5.42
5.70 5.28
5.59 5.34
5.34 5.22
5.23 4.72
5.23 4.54
5.16 4.62
5.17 4.66
5.16 4.79
5.12 4.86
5.09 4.85
5.07 4.84
5.06 4.85
5.06 4.84
5.05 4.85
5.05 4.86
5.05 4.86
5.05 4.85
5.05 4.85
5.06 4.86
5.06 4.87
5.06 4.87
5.06 4.88
5.06 4.88
5.06 4.88
5.06 4.89
5.06 4.89
5.05 4.88
5.05 4.88
5.05 4.88
5.06 4.88
5.06 4.88
5.06 4.87
5.06 4.87
5.07 4.88
5.08 4.88
5.08 4.90
5.07 4.91
5.08 4.93
5.09 4.96
5.08 4.98
5.09 5.01
5.10 5.03
5.10 5.04
5.10 5.06
5.11 5.08
5.11 5.08
5.10 5.09
5.10 5.11
5.11 5.14
5.11 5.16
5.11 5.17
5.11 5.16
5.11 5.14
5.10 5.12
5.10 5.10
5.10 5.09
5.10 5.06
5.10 5.05
5.09 5.03
5.08 5.01
5.08 4.99
5.08 4.97
5.07 4.96
5.07 4.96
5.07 4.96
5.07 4.97
5.07 4.96
5.06 4.94
5.06 4.94
5.07 4.94
5.07 4.92
5.07 4.92
5.07 4.91
5.07 4.91
5.07 4.91
5.08 4.92
5.08 4.93
5.09 4.93
5.10 4.93
5.11 4.94
5.11 4.97
5.11 4.98
5.11 4.97
5.10 4.97
5.08 4.97
5.07 4.96
5.07 4.97
5.07 4.97
5.07 4.96
5.07 4.95
5.07 4.95
5.07 4.95
5.06 4.94
5.07 4.94
5.06 4.93
5.06 4.93
5.06 4.93
5.06 4.94
5.06 4.94
5.06 4.93
5.05 4.93
5.05 4.93
5.05 4.94
5.05 4.94
5.05 4.95
5.05 4.94
5.05 4.94
5.05 4.95
5.05 4.95
5.05 4.95
5.06 4.96
5.06 4.96
5.06 4.97
5.08 4.97
5.09 4.96
5.09 4.96
5.10 4.96
5.11 4.96
5.11 4.96
5.11 4.95
5.12 4.95
5.12 4.94
5.11 4.94
5.09 4.90
5.08 4.88
5.08 4.89
5.08 4.90
5.07 4.89
5.07 4.89
5.06 4.89
5.05 4.89
5.05 4.89
5.05 4.91
5.05 4.92
5.05 4.91
5.04 4.91
5.04 4.91
5.04 4.92
5.04 4.93
5.04 4.94
5.05 4.96
5.05 4.95
5.05 4.94
5.04 4.95
4.99 5.00
4.92 5.11
4.91 5.23
4.97 5.32
5.15 5.35
5.41 5.31
5.64 5.30
5.64 5.21
5.43 5.30
5.18 5.18
5.16 4.65
5.18 4.51
5.11 4.55
5.14 4.59
5.16 4.75
5.15 4.86
5.12 4.88
5.10 4.90
5.10 4.90
5.10 4.91
5.10 4.91
5.10 4.90
5.09 4.88
5.09 4.88
5.08 4.86
5.07 4.85
5.07 4.85
5.07 4.86
5.07 4.86
5.07 4.85
5.06 4.85
5.06 4.86
5.06 4.87
5.06 4.88
5.06 4.88
5.06 4.89
5.06 4.88
5.07 4.90
5.07 4.92
5.07 4.92
5.08 4.92
5.08 4.93
5.09 4.94
5.10 4.95
5.11 4.98
5.11 4.99
5.11 5.01
5.11 5.04
5.12 5.06
5.13 5.07
5.13 5.06
5.13 5.08
5.14 5.10
5.14 5.11
5.13 5.11
5.12 5.13
5.13 5.16
5.13 5.17
5.13 5.15
5.13 5.13
5.13 5.13
5.13 5.13
5.13 5.10
5.13 5.08
5.13 5.07
5.13 5.04
5.12 5.03
5.11 5.02
5.11 5.01
5.10 5.01
5.10 5.02
5.09 5.03
5.09 5.02
5.10 5.01
5.10 5.00
5.10 5.00
5.10 5.00
5.10 4.99
5.10 4.99
5.10 4.99
5.11 4.99
5.11 5.00
5.12 5.00
5.12 5.00
5.12 4.99
5.12 4.98
5.12 4.97
5.12 4.97
5.13 4.97
5.13 4.98
5.12 4.99
5.11 4.99
5.10 4.99
5.10 4.99
5.10 4.99
5.09 4.99
5.09 4.99
5.09 4.99
5.09 5.00
5.09 5.01
5.09 5.01
5.09 5.02
5.09 5.02
5.09 5.02
5.09 5.01
5.08 5.01
5.08 5.00
5.08 4.99
5.07 4.98
5.07 4.98
5.04 4.99
4.98 5.08
4.96 5.27
5.00 5.40
5.13 5.42
5.35 5.35
5.56 5.23
5.59 5.13
5.43 5.26
5.23 5.16
5.16 4.69
5.21 4.50
5.15 4.60
5.17 4.66
5.18 4.83
5.17 4.95
5.15 4.97
5.14 4.96
5.13 4.95
5.12 4.94
5.11 4.94
5.10 4.93
5.09 4.92
5.08 4.90
5.08 4.91
5.07 4.91
5.07 4.92
5.08 4.92
5.08 4.93
5.08 4.91
5.08 4.90
5.08 4.90
5.08 4.89
5.08 4.89
5.08 4.90
5.08 4.91
5.08 4.92
5.09 4.92
5.09 4.93
5.09 4.95
5.10 4.96
5.10 4.97
5.10 4.98
5.10 4.99
5.10 5.01
5.11 5.03
5.11 5.05
5.12 5.07
5.12 5.08
5.12 5.09
5.12 5.10
5.13 5.12
5.15 5.15
5.16 5.18
5.17 5.20
5.17 5.20
5.16 5.20
5.15 5.19
5.14 5.19
5.14 5.18
5.14 5.17
5.14 5.16
5.14 5.15
5.14 5.12
5.14 5.10
5.13 5.08
5.12 5.05
5.12 5.02
5.11 5.00
5.11 4.98
5.11 4.97
5.11 4.97
5.10 4.95
5.09 4.94
5.09 4.94
5.09 4.95
5.09 4.96
5.09 4.98
5.09 4.98
5.08 4.99
5.08 5.00
5.08 5.01
5.09 5.02
5.09 5.03
5.09 5.03
5.09 5.03
5.09 5.03
5.09 5.02
5.10 5.03
5.10 5.03
5.10 5.02
5.09 5.02
5.08 5.02
5.08 5.03
5.06 5.05
5.02 5.14
5.01 5.32
5.05 5.47
5.16 5.54
5.37 5.50
5.60 5.43
5.64 5.30
5.52 5.36
5.29 5.20
5.23 4.73
5.21 4.64
5.16 4.71
5.17 4.80
5.15 4.94
5.12 4.99
5.11 4.96
5.11 4.95
5.11 4.95
5.10 4.94
5.09 4.93
5.09 4.92
5.09 4.93
5.10 4.93
5.11 4.94
5.11 4.96
5.10 4.96
5.10 4.95
5.09 4.92
5.08 4.90
5.08 4.88
5.08 4.88
5.08 4.87
5.07 4.87
5.06 4.90
5.06 4.91
5.06 4.93
5.07 4.95
5.08 4.97
5.09 4.98
5.10 5.00
5.10 5.02
5.10 5.04
5.10 5.05
5.10 5.07
5.10 5.08
5.11 5.09
5.11 5.11
5.11 5.12
5.11 5.12
5.12 5.13
5.12 5.13
5.12 5.14
5.12 5.15
5.13 5.16
5.14 5.16
5.14 5.16
5.14 5.14
5.13 5.13
5.13 5.11
5.12 5.10
5.12 5.09
5.12 5.09
5.12 5.08
5.12 5.07
5.13 5.07
5.14 5.08
5.13 5.07
5.12 5.06
5.11 5.05
5.09 5.05
5.09 5.05
5.08 5.04
5.08 5.03
5.08 5.03
5.08 5.03
5.08 5.03
5.08 5.03
5.07 5.03
5.07 5.03
5.07 5.03
5.08 5.03
5.08 5.03
5.08 5.03
5.08 5.03
5.09 5.04
5.09 5.05
5.09 5.05
5.09 5.04
5.09 5.03
5.10 5.04
5.11 5.05
5.12 5.04
5.12 5.03
5.13 5.02
5.13 5.01
5.13 5.00
5.14 4.98
5.14 4.97
5.14 4.97
5.12 4.95
5.11 4.94
5.10 4.94
5.10 4.95
5.09 4.95
5.09 4.95
5.09 4.97
5.08 4.98
5.08 4.98
5.07 4.98
5.08 4.98
5.08 4.99
5.07 5.00
5.07 5.00
5.07 5.01
5.07 5.02
5.07 5.02
5.07 5.02
5.07 5.02
5.07 5.02
5.08 5.01
5.08 5.00
5.08 4.99
5.08 4.98
5.08 4.96
5.09 4.96
5.09 4.97
5.09 4.97
5.08 4.96
5.08 4.96
5.08 4.94
5.08 4.94
5.08 4.94
5.09 4.93
5.08 4.93
5.07 4.94
5.08 4.95
5.08 4.97
5.08 4.97
5.08 4.98
5.08 4.98
5.08 4.99
5.08 5.00
5.08 5.02
5.09 5.03
5.09 5.04
5.09 5.04
5.09 5.04
5.09 5.05
5.09 5.05
5.09 5.05
5.08 5.05
5.04 5.09
4.96 5.18
4.95 5.30
5.02 5.40
5.20 5.42
5.47 5.39
5.68 5.39
5.65 5.30
5.42 5.36
5.18 5.16
5.18 4.63
5.16 4.51
5.11 4.55
5.13 4.59
5.15 4.75
5.14 4.87
5.11 4.89
5.09 4.88
5.08 4.89
5.08 4.89
5.08 4.91
5.08 4.93
5.08 4.93
5.07 4.94
5.07 4.94
5.08 4.95
5.08 4.95
5.09 4.94
5.09 4.94
5.09 4.93
5.09 4.93
5.10 4.94
5.10 4.94
5.11 4.94
5.11 4.95
5.11 4.97
5.11 4.98
5.11 4.99
5.11 5.00
5.11 5.00
5.11 5.00
5.11 5.01
5.11 5.01
5.11 5.02
5.12 5.03
5.12 5.04
5.12 5.05
5.12 5.06
5.13 5.07
5.14 5.09
5.14 5.10
5.14 5.10
5.13 5.10
5.13 5.10
5.13 5.11
5.13 5.12
5.14 5.10
5.15 5.10
5.15 5.12
5.15 5.13
5.15 5.13
5.16 5.15
5.17 5.15
5.17 5.15
5.17 5.14
5.17 5.13
5.16 5.12
5.15 5.11
5.14 5.09
5.14 5.07
5.13 5.06
5.12 5.06
5.12 5.05
5.12 5.04
5.12 5.03
5.12 5.03
5.11 5.04
5.11 5.05
5.11 5.05
5.10 5.05
5.11 5.05
5.11 5.05
5.11 5.05
5.10 5.05
5.10 5.06
5.10 5.05
5.09 5.04
5.06 5.05
5.02 5.10
5.00 5.22
5.04 5.37
5.15 5.48
5.35 5.49
5.61 5.47
5.71 5.33
5.62 5.28
5.40 4.99
5.33 4.64
5.30 4.65
5.23 4.80
5.22 4.89
5.17 4.98
5.14 4.96
5.13 4.94
5.12 4.94
5.12 4.95
5.11 4.94
5.11 4.94
5.11 4.94
5.11 4.95
5.11 4.95
5.10 4.95
5.10 4.96
5.10 4.96
5.10 4.95
5.09 4.95
5.09 4.94
5.08 4.93
5.07 4.92
5.06 4.91
5.06 4.92
5.05 4.92
5.05 4.93
5.05 4.95
5.06 4.96
5.06 4.97
5.07 4.98
5.07 5.00
5.08 5.01
5.09 5.03
5.09 5.04
5.10 5.05
5.10 5.06
5.11 5.08
5.11 5.09
5.11 5.09
5.11 5.09
5.11 5.10
5.12 5.11
5.12 5.13
5.13 5.14
5.13 5.15
5.13 5.15
5.13 5.16
5.13 5.16
5.14 5.15
5.14 5.14
5.14 5.12
5.13 5.10
5.13 5.08
5.13 5.06
5.12 5.05
5.12 5.03
5.11 5.02
5.10 5.01
5.10 5.02
5.09 5.02
5.09 5.02
5.09 5.03
5.08 5.02
5.08 5.01
5.09 5.01
5.08 5.00
5.08 5.00
5.08 5.00
5.09 5.00
5.09 4.99
5.09 4.99
5.09 4.98
5.09 4.98
5.09 4.97
5.08 4.97
5.09 4.97
5.09 4.96
5.09 4.96
5.09 4.96
5.09 4.96
5.09 4.95
5.09 4.94
5.09 4.95
5.09 4.97
5.10 4.98
5.11 4.99
5.11 4.99
5.11 4.99
5.12 5.00
5.11 5.00
5.10 5.00
5.10 5.01
5.10 5.01
5.10 5.01
5.09 5.01
5.09 5.01
5.09 5.00
5.07 4.99
5.02 5.02
4.95 5.09
4.94 5.22
5.01 5.29
5.19 5.31
5.44 5.27
5.64 5.27
5.63 5.19
5.39 5.27
5.15 5.16
5.13 4.65
5.13 4.49
5.08 4.53
5.10 4.58
5.12 4.74
5.11 4.88
5.09 4.92
5.09 4.92
5.09 4.93
5.09 4.95
5.10 4.95
5.10 4.95
5.10 4.96
5.10 4.96
5.10 4.97
5.09 4.98
5.09 4.97
5.08 4.97
5.09 4.97
5.08 4.96
5.08 4.94
5.08 4.93
5.09 4.92
5.09 4.92
5.09 4.91
5.09 4.90
5.09 4.91
5.09 4.91
5.09 4.90
5.09 4.89
5.10 4.89
5.11 4.91
5.11 4.93
5.12 4.93
5.11 4.93
5.12 4.94
5.13 4.96
5.13 4.97
5.13 4.99
5.13 5.00
5.13 4.99
5.13 5.00
5.14 5.02
5.14 5.03
5.14 5.04
5.15 5.04
5.15 5.05
5.16 5.06
5.16 5.06
5.16 5.08
5.16 5.08
5.16 5.08
5.14 5.07
5.12 5.09
5.11 5.13
5.11 5.14
5.11 5.14
5.10 5.13
5.10 5.11
5.09 5.09
5.09 5.08
5.10 5.08
5.09 5.06
5.10 5.04
5.10 5.03
5.10 5.03
5.10 5.00
5.10 4.98
5.10 4.96
5.10 4.94
5.10 4.94
5.11 4.94
5.11 4.94
5.10 4.93
5.10 4.93
5.10 4.92
5.10 4.92
5.10 4.91
5.10 4.90
5.09 4.90
5.10 4.90
5.09 4.91
5.10 4.91
5.10 4.91
5.10 4.91
5.10 4.93
5.11 4.94
5.11 4.95
5.10 4.95
5.09 4.94
5.08 4.97
5.09 5.01
5.09 5.03
5.09 5.04
5.09 5.03
5.08 5.04
5.08 5.05
5.09 5.05
5.08 5.04
5.08 5.02
5.08 5.00
5.08 5.00
5.07 4.99
5.07 4.98
5.07 4.97
5.07 4.98
5.07 5.00
5.08 4.98
5.06 4.97
5.03 4.98
4.95 5.06
4.92 5.20
4.97 5.30
5.12 5.33
5.36 5.31
5.59 5.29
5.62 5.19
5.45 5.28
5.21 5.22
5.15 4.72
5.19 4.50
5.13 4.54
5.14 4.54
5.15 4.69
5.14 4.82
5.12 4.85
5.10 4.82
5.09 4.81
5.08 4.81
5.08 4.81
5.08 4.81
5.07 4.82
5.07 4.81
5.07 4.82
5.07 4.84
5.08 4.85
5.10 4.89
5.10 4.92
5.12 4.96
5.13 4.99
5.13 5.01
5.13 5.03
5.13 5.04
5.13 5.05
5.14 5.07
5.14 5.08
5.12 5.10
5.11 5.10
5.11 5.10
5.10 5.10
5.11 5.10
5.11 5.08
5.11 5.06
5.11 5.04
5.11 5.01
5.11 5.00
5.11 5.01
5.11 5.00
5.11 4.99
5.11 4.98
5.11 4.98
5.11 4.99
5.11 5.01
5.11 5.03
5.11 5.05
5.12 5.07
5.12 5.09
5.13 5.10
5.13 5.11
5.13 5.11
5.13 5.09
5.13 5.07
5.12 5.05
5.12 5.03
5.12 5.02
5.11 5.01
5.11 4.99
5.11 4.98
5.11 4.98
5.11 4.97
5.12 4.97
5.13 4.97
5.14 4.99
5.14 4.99
5.14 4.99
5.13 4.98
5.13 4.99
5.12 5.00
5.12 5.00
5.12 4.99
5.11 5.00
5.11 5.01
5.11 5.02
5.10 5.02
5.09 5.01
5.06 5.02
5.01 5.08
5.00 5.23
5.04 5.38
5.14 5.47
5.35 5.46
5.59 5.45
5.64 5.33
5.51 5.30
5.33 5.03
5.29 4.76
5.27 4.79
5.20 4.90
5.17 4.99
5.12 5.04
5.09 4.99
5.08 4.96
5.07 4.93
5.06 4.90
5.06 4.88
5.07 4.88
5.08 4.87
5.08 4.86
5.08 4.86
5.09 4.85
5.09 4.84
5.09 4.84
5.10 4.84
5.10 4.84
5.10 4.85
5.10 4.86
5.10 4.87
5.10 4.89
5.10 4.90
5.10 4.90
5.09 4.90
5.09 4.91
5.09 4.92
5.09 4.94
5.08 4.94
5.06 4.95
5.06 4.95
5.06 4.97
5.05 4.98
5.05 5.01
5.05 5.03
5.05 5.04
5.05 5.05
5.05 5.07
5.06 5.08
5.07 5.10
5.07 5.10
5.08 5.11
5.09 5.12
5.10 5.12
5.10 5.12
5.11 5.12
5.12 5.13
5.12 5.12
5.13 5.10
5.13 5.09
5.14 5.07
5.14 5.06
5.14 5.05
5.14 5.04
5.14 5.03
5.13 5.01
5.12 5.00
5.11 4.98
5.11 4.97
5.10 4.97
5.10 4.97
5.10 4.97
5.10 4.97
5.10 4.97
5.10 4.99
5.09 5.00
5.08 5.00
5.08 5.01
5.09 5.01
5.09 5.03
5.09 5.03
5.10 5.04
5.10 5.04
5.10 5.05
5.10 5.05
5.10 5.05
5.10 5.05
5.10 5.05
5.10 5.04
5.11 5.03
5.10 5.02
5.10 5.01
5.10 5.00
5.10 4.98
5.09 4.96
5.09 4.95
5.09 4.95
5.09 4.96
5.10 4.97
5.09 4.97
5.10 4.97
5.10 4.98
5.11 5.01
5.11 5.01
5.10 5.02
5.05 5.05
4.98 5.13
4.96 5.24
5.00 5.30
5.16 5.31
5.42 5.28
5.64 5.25
5.66 5.18
5.45 5.27
5.20 5.24
5.13 4.76
5.18 4.51
5.11 4.56
5.11 4.59
5.13 4.73
5.12 4.87
5.10 4.91
5.08 4.89
5.08 4.88
5.07 4.89
5.06 4.91
5.06 4.92
5.06 4.92
5.06 4.92
5.06 4.92
5.06 4.92
5.06 4.93
5.07 4.93
5.08 4.95
5.08 4.96
5.09 4.97
5.10 4.97
5.10 4.96
5.10 4.97
5.11 4.97
5.11 4.97
5.11 4.99
5.12 5.00
5.12 5.01
5.14 5.03
5.14 5.05
5.13 5.06
5.13 5.07
5.14 5.08
5.14 5.10
5.14 5.10
5.14 5.10
5.14 5.10
5.13 5.10
5.12 5.12
5.12 5.12
5.12 5.13
5.12 5.13
5.12 5.13
5.12 5.14
5.13 5.14
5.13 5.14
5.13 5.15
5.13 5.14
5.12 5.14
5.12 5.12
5.12 5.12
5.12 5.11
5.12 5.09
5.11 5.07
5.11 5.05
5.10 5.03
5.10 5.03
5.11 5.02
5.11 5.02
5.11 5.04
5.12 5.06
5.12 5.07
5.12 5.08
5.12 5.08
5.12 5.09
5.12 5.08
5.12 5.08
5.11 5.08
5.12 5.08
5.12 5.07
5.11 5.06
5.11 5.05
5.11 5.04
5.11 5.04
5.11 5.03
5.11 5.03
5.11 5.03
5.08 5.05
5.02 5.11
5.00 5.27
5.04 5.42
5.16 5.53
5.37 5.53
5.61 5.50
5.69 5.40
5.60 5.38
5.39 5.09
5.32 4.75
5.29 4.73
5.21 4.84
5.18 4.93
5.13 5.02
5.10 5.00
5.09 4.97
5.08 4.96
5.08 4.95
5.08 4.96
5.08 4.96
5.08 4.96
5.09 4.96
5.09 4.95
5.10 4.95
5.10 4.95
5.11 4.95
5.11 4.95
5.11 4.95
5.11 4.95
5.11 4.95
5.11 4.95
5.11 4.94
5.11 4.95
5.11 4.96
5.12 4.97
5.12 4.97
5.12 4.98
5.11 4.98
5.10 4.99
5.10 4.99
5.09 5.01
5.09 5.03
5.08 5.04
5.08 5.06
5.08 5.06
5.07 5.06
5.07 5.07
5.08 5.08
5.07 5.08
5.08 5.10
5.08 5.10
5.08 5.11
5.09 5.11
5.09 5.12
5.10 5.12
5.11 5.12
5.11 5.12
5.11 5.11
5.12 5.11
5.12 5.10
5.12 5.10
5.13 5.11
5.13 5.10
5.13 5.11
5.13 5.11
5.14 5.12
5.14 5.13
5.14 5.13
5.13 5.13
5.13 5.13
5.13 5.12
5.13 5.11
5.12 5.10
5.12 5.11
5.11 5.12
5.11 5.11
5.11 5.10
5.11 5.09
5.11 5.08
5.10 5.07
5.10 5.04
5.10 5.03
5.10 5.00
5.11 5.00
5.11 5.00
5.12 5.00
5.12 5.00
5.12 5.00
5.11 5.00
5.11 4.99
5.10 4.99
5.09 4.99
5.09 4.99
5.09 5.00
5.09 5.01
5.09 5.01
5.09 5.02
5.09 5.03
5.09 5.03
5.09 5.03
5.09 5.03
5.09 5.02
5.09 5.01
5.10 5.01
5.10 4.99
5.09 4.98
5.08 5.00
5.08 5.01
5.08 5.02
5.08 5.02
5.07 5.03
5.07 5.05
5.06 5.06
5.06 5.06
5.06 5.05
5.07 5.04
5.09 5.04
5.09 5.04
5.09 5.03
5.09 5.03
5.09 5.02
5.09 5.02
5.09 5.02
5.09 5.02
5.09 5.01
5.09 5.01
5.09 5.02
5.10 5.03
5.10 5.03
5.09 5.03
5.09 5.02
5.09 5.02
5.08 5.02
5.08 5.02
5.07 5.02
5.07 5.02
5.07 5.02
5.07 5.03
5.07 5.02
5.08 5.03
5.09 5.04
5.09 5.04
5.10 5.03
5.10 5.06
5.09 5.07
5.09 5.07
5.09 5.07
5.09 5.05
5.09 5.06
5.09 5.04
5.09 5.03
5.09 5.01
5.09 5.00
5.08 4.98
5.08 4.96
5.08 4.96
5.07 4.95
5.07 4.94
5.06 4.94
5.06 4.93
5.06 4.93
5.06 4.95
5.07 4.97
5.07 4.98
5.08 4.99
5.08 5.00
5.09 5.01
5.09 5.02
5.09 5.02
5.10 5.02
5.10 5.02
5.11 5.02
5.11 5.01
5.11 5.01
5.12 5.01
5.12 5.00
5.12 5.01
5.12 5.01
5.11 5.01
5.10 5.02
5.10 5.03
5.10 5.03
5.09 5.03
5.08 5.04
5.06 5.05
5.01 5.10
4.94 5.21
4.95 5.36
5.04 5.47
5.24 5.52
5.51 5.50
5.71 5.51
5.66 5.43
5.40 5.48
5.16 5.26
5.17 4.73
5.14 4.62
5.09 4.62
5.11 4.66
5.14 4.82
5.13 4.94
5.11 4.96
5.10 4.93
5.09 4.91
5.08 4.90
5.08 4.89
5.08 4.89
5.08 4.89
5.08 4.89
5.08 4.88
5.08 4.89
5.09 4.90
5.09 4.90
5.09 4.92
5.10 4.93
5.09 4.94
5.10 4.95
5.10 4.96
5.09 4.96
5.08 4.97
5.08 4.98
5.08 5.00
5.09 5.01
5.09 5.02
5.09 5.03
5.10 5.05
5.10 5.06
5.11 5.07
5.11 5.08
5.11 5.09
5.11 5.09
5.11 5.10
5.11 5.10
5.12 5.09
5.13 5.09
5.14 5.10
5.14 5.10
5.14 5.10
5.15 5.10
5.16 5.10
5.16 5.10
5.17 5.11
5.18 5.12
5.19 5.13
5.20 5.13
5.20 5.14
5.20 5.14
5.19 5.14
5.18 5.13
5.18 5.12
5.18 5.10
5.17 5.10
5.16 5.11
5.16 5.09
5.16 5.08
5.15 5.07
5.14 5.06
5.14 5.07
5.15 5.09
5.16 5.12
5.15 5.13
5.15 5.13
5.15 5.13
5.15 5.14
5.15 5.15
5.15 5.15
5.15 5.15
5.14 5.15
5.14 5.15
5.14 5.16
5.14 5.15
5.13 5.12
5.12 5.11
5.12 5.11
5.12 5.10
5.12 5.09
5.12 5.08
5.12 5.06
5.12 5.04
5.11 5.02
5.11 5.01
5.10 4.99
5.11 4.98
5.11 4.98
5.10 4.97
5.10 4.97
5.11 4.97
5.11 4.96
5.11 4.96
5.11 4.96
5.11 4.98
5.11 5.00
5.11 5.00
5.11 5.00
5.11 5.01
5.10 5.02
5.11 5.02
5.11 5.03
5.12 5.03
5.12 5.04
5.11 5.03
5.10 5.03
5.10 5.05
5.09 5.05
5.09 5.05
5.08 5.05
5.08 5.05
5.06 5.05
5.00 5.09
4.92 5.17
4.93 5.29
5.03 5.34
5.25 5.38
5.54 5.35
5.69 5.34
5.60 5.28
5.35 5.31
5.18 4.96
5.23 4.51
5.17 4.53
5.15 4.57
5.17 4.71
5.17 4.87
5.13 4.94
5.12 4.93
5.11 4.91
5.11 4.91
5.10 4.91
5.10 4.90
5.10 4.90
5.10 4.91
5.09 4.91
5.09 4.90
5.10 4.90
5.10 4.91
5.11 4.90
5.11 4.90
5.12 4.90
5.12 4.92
5.12 4.94
5.11 4.95
5.11 4.97
5.12 4.99
5.12 5.00
5.13 5.00
5.13 5.01
5.13 5.01
5.13 5.02
5.13 5.03
5.14 5.07
5.14 5.10
5.15 5.12
5.15 5.14
5.15 5.15
5.16 5.16
5.16 5.16
5.17 5.17
5.17 5.17
5.18 5.17
5.18 5.16
5.18 5.16
5.18 5.17
5.18 5.17
5.19 5.16
5.19 5.16
5.20 5.15
5.20 5.14
5.19 5.12
5.19 5.10
5.19 5.08
5.18 5.05
5.18 5.03
5.17 5.01
5.16 5.00
5.15 5.00
5.14 5.00
5.13 5.00
5.11 5.01
5.11 5.00
5.11 5.00
5.11 5.00
5.10 5.00
5.09 5.01
5.09 5.00
5.08 5.01
5.08 5.02
5.07 5.03
5.07 5.02
5.07 5.01
5.07 5.01
5.07 5.00
5.07 4.98
5.08 4.98
5.08 4.98
5.09 4.98
5.09 4.98
5.09 4.98
5.10 4.98
5.12 4.99
5.12 4.98
5.13 4.98
5.13 4.97
5.12 5.00
5.12 5.00
5.12 4.99
5.12 4.98
5.12 4.97
5.12 4.97
5.12 4.97
5.11 4.96
5.11 4.96
5.11 4.95
5.10 4.94
5.10 4.94
5.10 4.95
5.10 4.95
5.10 4.96
5.09 4.97
5.08 4.97
5.07 4.96
5.08 4.96
5.08 4.97
5.08 4.98
5.09 4.97
5.09 4.97
5.09 4.98
5.08 4.99
5.08 4.99
5.08 4.99
5.08 4.99
5.08 5.00
5.08 5.01
5.08 5.01
5.08 5.00
5.08 5.02
5.09 5.02
5.09 5.02
5.09 5.01
5.09 5.01
5.09 5.01
5.09 5.00
5.09 4.99
5.09 4.99
5.09 4.98
5.09 4.96
5.09 4.95
5.09 4.94
5.09 4.92
5.09 4.90
5.09 4.89
5.09 4.89
5.09 4.89
5.09 4.88
5.09 4.86
5.09 4.86
5.09 4.87
5.09 4.89
5.09 4.92
5.10 4.95
5.10 4.96
5.09 4.97
5.08 4.97
5.08 4.98
5.09 4.98
5.09 4.99
5.08 4.99
5.08 5.01
5.07 5.03
5.08 5.03
5.08 5.03
5.09 5.03
5.09 5.03
5.08 5.00
5.09 4.99
5.08 4.99
5.09 4.99
5.08 4.98
5.08 4.97
5.08 4.96
5.08 4.94
5.08 4.92
5.09 4.91
5.11 4.93
5.11 4.94
5.12 4.95
5.12 4.96
5.13 4.96
5.13 4.96
5.13 4.97
5.12 4.98
5.07 5.03
4.99 5.12
4.99 5.24
5.07 5.32
5.25 5.33
5.52 5.30
5.72 5.33
5.69 5.29
5.44 5.37
5.20 5.17
5.20 4.66
5.17 4.57
5.11 4.62
5.14 4.66
5.14 4.81
5.12 4.94
5.09 4.99
5.08 4.99
5.08 5.00
5.07 5.02
5.07 5.01
5.07 5.01
5.07 5.01
5.07 4.99
5.08 4.99
5.08 4.99
5.09 4.98
5.09 4.96
5.09 4.95
5.10 4.93
5.10 4.93
5.10 4.92
5.10 4.91
5.10 4.89
5.11 4.89
5.11 4.88
5.11 4.88
5.11 4.87
5.11 4.86
5.11 4.85
5.11 4.85
5.11 4.84
5.11 4.85
5.11 4.87
5.11 4.88
5.11 4.89
5.11 4.91
5.12 4.93
5.12 4.94
5.12 4.98
5.12 5.04
5.12 5.05
5.12 5.07
5.13 5.11
5.13 5.15
5.16 5.20
5.17 5.22
5.17 5.23
5.17 5.23
5.17 5.24
5.18 5.24
5.18 5.22
5.18 5.20
5.18 5.20
5.17 5.18
5.17 5.16
5.16 5.15
5.16 5.14
5.15 5.12
5.15 5.10
5.14 5.08
5.13 5.04
5.12 5.03
5.12 5.02
5.12 5.01
5.12 4.99
5.11 4.98
5.11 4.96
5.10 4.95
5.11 4.93
5.11 4.93
5.12 4.96
5.12 4.95
5.12 4.95
5.11 4.96
5.12 4.98
5.12 4.99
5.12 5.00
5.14 5.03
5.14 5.05
5.14 5.06
5.13 5.07
5.13 5.08
5.13 5.09
5.13 5.10
5.12 5.10
5.13 5.09
5.12 5.08
5.12 5.07
5.12 5.07
5.12 5.05
5.11 5.05
5.11 5.04
5.11 5.03
5.11 5.03
5.10 5.03
5.10 5.02
5.10 5.00
5.10 4.99
5.09 4.98
5.08 4.98
5.08 4.96
5.08 4.96
5.08 4.96
5.09 4.98
5.10 5.00
5.10 5.01
5.10 5.00
5.10 5.00
5.10 4.99
5.10 4.99
5.10 4.99
5.10 5.00
5.09 5.01
5.09 5.01
5.10 5.00
5.10 5.00
5.10 5.00
5.10 4.99
5.10 5.01
5.10 5.03
5.10 5.03
5.10 5.03
5.10 5.02
5.10 5.02
5.10 5.02
5.09 5.02
5.09 5.00
5.08 4.99
5.08 4.98
5.07 4.98
5.07 4.98
5.07 4.99
5.08 5.00
5.08 5.00
5.08 5.00
5.08 5.00
5.09 5.01
5.09 5.02
5.10 5.02
5.11 5.01
5.10 5.00
5.10 4.99
5.10 4.98
5.11 4.98
5.11 4.97
5.11 4.98
5.11 4.97
5.11 4.97
5.11 4.97
5.10 4.99
5.06 5.05
4.98 5.16
4.97 5.29
5.04 5.38
5.22 5.40
5.48 5.32
5.67 5.33
5.64 5.28
5.41 5.39
5.17 5.25
5.16 4.71
5.17 4.63
5.11 4.67
5.14 4.72
5.14 4.89
5.14 5.01
5.12 5.03
5.11 5.02
5.11 5.02
5.11 5.03
5.11 5.03
5.10 5.03
5.10 5.03
5.10 5.02
5.10 5.01
5.10 5.00
5.10 4.98
5.10 4.96
5.10 4.95
5.10 4.92
5.09 4.90
5.09 4.88
5.09 4.87
5.09 4.85
5.09 4.87
5.09 4.89
5.09 4.90
5.09 4.90
5.10 4.91
5.10 4.92
5.11 4.94
5.11 4.96
5.12 4.98
5.12 5.02
5.14 5.07
5.14 5.10
5.15 5.12
5.15 5.14
5.15 5.15
5.15 5.16
5.15 5.17
5.15 5.18
5.16 5.20
5.16 5.21
5.16 5.21
5.17 5.22
5.17 5.23
5.18 5.24
5.17 5.24
5.16 5.23
5.16 5.22
5.16 5.21
5.16 5.21
5.15 5.20
5.14 5.18
5.13 5.16
5.13 5.14
5.12 5.13
5.12 5.11
5.11 5.08
5.11 5.06
5.10 5.04
5.10 5.03
5.10 5.03
5.09 5.03
5.09 5.01
5.09 5.01
5.09 4.99
5.09 4.99
5.09 4.98
5.07 4.99
5.06 5.02
5.02 5.13
5.04 5.34
5.11 5.51
5.26 5.64
5.46 5.61
5.66 5.59
5.62 5.47
5.45 5.30
5.29 4.92
5.32 4.71
5.26 4.87
5.24 4.98
5.20 5.07
5.14 5.10
5.13 5.06
5.12 5.05
5.11 5.04
5.10 5.03
5.09 5.01
5.09 5.01
5.09 4.99
5.09 4.97
5.09 4.96
5.09 4.94
5.10 4.92
5.09 4.91
5.09 4.91
5.09 4.90
5.08 4.90
5.08 4.89
5.08 4.88
5.08 4.88
5.08 4.88
5.10 4.89
5.10 4.91
5.10 4.92
5.10 4.94
5.10 4.95
5.10 4.97
5.10 4.98
5.11 5.00
5.11 5.02
5.12 5.04
5.12 5.06
5.13 5.08
5.13 5.10
5.13 5.13
5.13 5.16
5.13 5.17
5.13 5.18
5.13 5.20
5.14 5.22
5.15 5.24
5.15 5.26
5.16 5.27
5.16 5.27
5.16 5.28
5.16 5.27
5.16 5.26
5.16 5.25
5.16 5.25
5.15 5.24
5.15 5.23
5.14 5.21
5.14 5.19
5.12 5.15
5.11 5.12
5.10 5.10
5.09 5.08
5.08 5.05
5.08 5.03
5.08 5.02
5.08 5.02
5.08 5.02
5.07 5.01
5.07 5.00
5.08 5.01
5.09 5.02
5.10 5.04
5.11 5.04
5.11 5.04
5.12 5.03
5.12 5.03
5.12 5.03
5.12 5.02
5.12 5.02
5.12 5.02
5.12 5.04
5.12 5.05
5.12 5.06
5.12 5.08
5.12 5.09
5.12 5.10
5.12 5.10
5.11 5.10
5.11 5.10
5.10 5.10
5.10 5.09
5.09 5.08
5.09 5.07
5.08 5.07
5.08 5.07
5.07 5.06
5.07 5.05
5.07 5.03
5.06 5.01
5.06 5.00
5.06 4.98
5.06 4.97
5.06 4.96
5.07 4.96
5.06 4.94
5.06 4.96
5.06 4.98
5.07 4.99
5.07 5.00
5.08 5.01
5.08 5.02
5.09 5.03
5.09 5.03
5.09 5.03
5.09 5.03
5.09 5.02
5.10 5.02
5.10 5.02
5.10 5.03
5.10 5.03
5.09 5.02
5.08 5.00
5.08 4.99
5.08 5.00
5.08 5.02
5.09 5.03
5.09 5.06
5.10 5.09
5.10 5.09
5.10 5.09
5.08 5.08
5.04 5.12
4.97 5.20
4.96 5.34
5.03 5.43
5.20 5.46
5.46 5.43
5.67 5.41
5.66 5.31
5.44 5.36
5.19 5.22
5.16 4.68
5.17 4.54
5.10 4.56
5.12 4.59
5.13 4.74
5.11 4.88
5.08 4.93
5.08 4.94
5.07 4.94
5.07 4.95
5.07 4.96
5.07 4.97
5.08 4.98
5.08 4.99
5.08 4.98
5.08 4.99
5.08 5.00
5.09 5.00
5.09 5.00
5.09 5.00
5.09 5.01
5.09 5.01
5.09 5.01
5.09 5.01
5.09 5.01
5.09 5.01
5.09 5.01
5.09 5.01
5.08 5.02
5.09 5.01
5.09 5.01
5.09 5.01
5.09 5.01
5.09 5.01
5.09 5.00
5.10 5.01
5.11 5.02
5.11 5.03
5.11 5.04
5.12 5.04
5.13 5.04
5.13 5.04
5.14 5.05
5.14 5.06
5.14 5.08
5.14 5.11
5.15 5.13
5.15 5.17
5.15 5.20
5.15 5.21
5.15 5.22
5.15 5.22
5.14 5.21
5.14 5.20
5.13 5.20
5.13 5.19
5.13 5.17
5.12 5.15
5.11 5.13
5.11 5.12
5.11 5.11
5.10 5.09
5.10 5.07
5.10 5.06
5.10 5.05
5.10 5.05
5.10 5.05
5.10 5.04
5.10 5.03
5.10 5.03
5.10 5.02
5.09 5.02
5.09 5.01
5.10 5.01
5.09 5.00
5.10 5.00
5.09 5.01
5.09 5.00
5.09 4.99
5.10 4.99
5.10 4.99
5.11 4.99
5.11 5.00
5.10 5.01
5.09 5.03
5.06 5.07
5.03 5.19
5.05 5.39
5.13 5.51
5.32 5.60
5.58 5.56
5.75 5.48
5.70 5.47
5.47 5.38
5.29 4.99
5.28 4.67
5.19 4.76
5.17 4.83
5.16 4.98
5.12 5.06
5.10 5.03
5.09 5.01
5.09 5.01
5.08 5.00
5.08 4.99
5.08 4.99
5.08 4.97
5.08 4.96
5.09 4.95
5.08 4.94
5.08 4.92
5.08 4.91
5.08 4.90
5.08 4.90
5.08 4.90
5.08 4.89
5.08 4.89
5.08 4.89
5.07 4.89
5.07 4.88
5.08 4.88
5.09 4.89
5.09 4.91
5.08 4.94
5.08 4.96
5.08 4.99
5.08 5.02
5.08 5.04
5.08 5.05
5.08 5.07
5.08 5.08
5.08 5.10
5.08 5.11
5.08 5.13
5.08 5.14
5.08 5.15
5.08 5.16
5.09 5.17
5.10 5.18
5.11 5.18
5.12 5.18
5.13 5.17
5.14 5.17
5.15 5.17
5.15 5.17
5.15 5.15
5.15 5.14
5.15 5.12
5.15 5.11
5.14 5.10
5.14 5.07
5.14 5.06
5.13 5.06
5.12 5.05
5.11 5.04
5.10 5.02
5.10 5.01
5.10 5.00
5.09 4.99
5.09 4.98
5.09 4.97
5.08 4.96
5.07 4.96
5.06 4.98
5.07 5.00
5.07 5.01
5.06 5.01
5.06 5.02
5.06 5.03
5.07 5.03
5.07 5.03
5.07 5.04
5.08 5.04
5.08 5.04
5.09 5.05
5.10 5.05
5.11 5.05
5.11 5.06
5.11 5.07
5.12 5.06
5.13 5.05
5.13 5.04
5.12 5.04
5.11 5.03
5.11 5.01
5.10 5.01
5.10 5.00
5.10 4.99
5.10 4.98
5.10 4.98
5.09 4.97
5.09 4.96
5.08 4.95
5.08 4.95
5.08 4.94
5.07 4.94
5.06 4.92
5.06 4.90
5.06 4.89
5.06 4.90
5.06 4.91
5.06 4.91
5.04 4.93
5.04 4.95
5.03 4.97
5.04 5.00
5.04 5.00
5.04 5.02
5.04 5.03
5.05 5.03
5.06 5.03
5.08 5.03
5.09 5.03
5.09 5.03
5.09 5.03
5.09 5.04
5.10 5.05
5.10 5.05
5.10 5.04
5.09 5.04
5.04 5.08
4.97 5.15
4.94 5.28
5.00 5.38
5.17 5.41
5.42 5.40
5.66 5.39
5.67 5.29
5.47 5.33
5.21 5.23
5.15 4.70
5.18 4.50
5.10 4.53
5.12 4.55
5.13 4.69
5.12 4.83
5.10 4.85
5.08 4.84
5.07 4.83
5.06 4.82
5.05 4.82
5.05 4.82
5.04 4.82
5.03 4.85
5.03 4.88
5.04 4.90
5.04 4.92
5.05 4.92
5.06 4.93
5.07 4.94
5.08 4.94
5.08 4.94
5.08 4.95
5.09 4.95
5.09 4.96
5.10 4.96
5.10 4.96
5.10 4.97
5.11 4.98
5.11 4.99
5.12 5.00
5.12 5.01
5.13 5.02
5.12 5.02
5.13 5.03
5.13 5.03
5.13 5.05
5.13 5.06
5.13 5.08
5.13 5.08
5.12 5.08
5.12 5.07
5.12 5.07
5.11 5.08
5.11 5.07
5.11 5.06
5.11 5.06
5.12 5.07
5.14 5.09
5.14 5.11
5.13 5.12
5.13 5.14
5.14 5.14
5.14 5.14
5.14 5.14
5.13 5.12
5.13 5.11
5.13 5.09
5.12 5.08
5.12 5.08
5.11 5.06
5.11 5.04
5.11 5.02
5.11 5.01
5.10 5.01
5.10 5.00
5.09 4.99
5.09 4.98
5.09 4.97
5.09 4.98
5.09 4.96
5.09 4.95
5.08 4.94
5.08 4.94
5.08 4.96
5.08 4.98
5.09 5.00
5.09 5.01
5.09 5.02
5.09 5.05
5.10 5.06
5.10 5.06
5.11 5.06
5.09 5.06
5.04 5.10
5.03 5.26
5.08 5.38
5.21 5.44
5.43 5.40
5.65 5.33
5.69 5.24
5.54 5.28
5.33 4.98
5.28 4.60
5.23 4.62
5.16 4.69
5.15 4.80
5.11 4.89
5.08 4.86
5.06 4.81
5.04 4.80
5.04 4.81
5.04 4.84
5.06 4.89
5.06 4.91
5.06 4.91
5.06 4.91
5.06 4.92
5.07 4.91
5.07 4.93
5.07 4.93
5.07 4.92
5.08 4.92
5.08 4.93
5.08 4.94
5.08 4.94
5.08 4.94
5.08 4.94
5.09 4.93
5.09 4.93
5.09 4.93
5.09 4.93
5.09 4.94
5.09 4.96
5.08 4.94
5.07 4.94
5.07 4.95
5.07 4.95
5.06 4.94
5.06 4.96
5.06 4.98
5.06 4.98
5.06 4.99
5.06 5.01
5.06 5.03
5.08 5.06
5.09 5.10
5.09 5.12
5.10 5.14
5.10 5.14
5.10 5.13
5.10 5.12
5.10 5.11
5.11 5.09
5.10 5.08
5.11 5.07
5.10 5.05
5.10 5.03
5.10 5.02
5.09 5.00
5.08 5.00
5.09 4.99
5.09 5.00
5.08 5.00
5.09 4.99
5.09 5.00
5.09 4.99
5.09 5.00
5.09 4.99
5.09 4.99
5.07 4.97
5.06 4.97
5.05 4.97
5.05 4.96
5.04 4.96
5.04 4.95
5.04 4.94
5.04 4.92
5.04 4.93
5.05 4.93
5.05 4.95
5.07 4.97
5.07 4.97
5.07 4.97
5.08 4.97
5.08 4.97
5.08 4.96
5.08 4.93
5.08 4.92
5.08 4.93
5.07 4.92
5.07 4.92
5.07 4.92
5.08 4.91
5.07 4.91
5.07 4.91
5.07 4.92
5.07 4.91
5.07 4.91
5.07 4.92
5.07 4.93
5.06 4.94
5.06 4.93
5.06 4.92
5.06 4.93
5.07 4.93
5.08 4.92
5.08 4.91
5.06 4.91
5.07 4.92
5.06 4.93
5.06 4.94
5.05 4.94
5.04 4.93
5.04 4.93
5.05 4.97
5.06 5.00
5.06 5.01
5.05 5.03
5.02 5.05
4.94 5.11
4.91 5.23
4.96 5.34
5.09 5.38
5.33 5.38
5.59 5.36
5.65 5.31
5.48 5.34
5.22 5.33
5.12 4.91
5.16 4.56
5.09 4.57
5.10 4.57
5.12 4.67
5.12 4.81
5.10 4.86
5.08 4.84
5.08 4.84
5.07 4.84
5.07 4.84
5.07 4.84
5.06 4.84
5.06 4.84
5.06 4.85
5.06 4.88
5.07 4.90
5.07 4.91
5.06 4.90
5.05 4.90
5.05 4.90
5.05 4.91
5.05 4.90
5.06 4.91
5.05 4.92
5.05 4.92
5.04 4.92
5.04 4.92
5.04 4.92
5.04 4.92
5.04 4.91
5.05 4.91
5.05 4.92
5.06 4.93
5.07 4.94
5.07 4.93
5.07 4.93
5.07 4.93
5.07 4.93
5.07 4.94
5.08 4.96
5.08 4.97
5.08 4.99
5.09 5.00
5.09 5.01
5.09 5.02
5.10 5.04
5.11 5.05
5.11 5.06
5.12 5.07
5.13 5.09
5.14 5.11
5.14 5.11
5.14 5.11
5.13 5.11
5.14 5.10
5.13 5.10
5.12 5.08
5.10 5.06
5.09 5.05
5.09 5.03
5.08 5.02
5.07 5.01
5.07 5.01
5.07 5.00
5.06 5.00
5.06 4.99
5.06 4.97
5.06 4.98
5.06 4.98
5.06 4.98
5.06 4.98
5.06 4.97
5.06 4.98
5.06 4.98
5.06 4.98
5.06 4.97
5.06 4.97
5.06 4.97
5.06 4.97
5.07 4.97
5.07 4.97
5.08 4.97
5.08 4.98
5.09 4.98
5.09 4.97
5.09 4.96
5.10 4.96
5.11 4.97
5.11 4.98
5.10 4.98
5.09 4.98
5.06 5.00
5.01 5.10
5.01 5.32
5.08 5.48
5.22 5.54
5.43 5.42
5.61 5.31
5.57 5.25
5.36 5.30
5.15 4.96
5.13 4.53
5.12 4.54
5.09 4.61
5.11 4.73
5.09 4.88
5.07 4.90
5.05 4.87
5.05 4.86
5.04 4.85
5.04 4.85
5.04 4.83
5.04 4.83
5.04 4.84
5.06 4.85
5.06 4.85
5.06 4.85
5.05 4.83
5.06 4.84
5.06 4.85
5.07 4.86
5.07 4.87
5.07 4.88
5.08 4.88
5.07 4.88
5.07 4.89
5.08 4.90
5.09 4.91
5.09 4.93
5.09 4.95
5.09 4.97
5.10 4.98
5.10 5.00
5.11 5.02
5.11 5.03
5.11 5.04
5.10 5.04
5.10 5.05
5.10 5.06
5.10 5.07
5.10 5.07
5.10 5.08
5.11 5.09
5.11 5.12
5.12 5.13
5.12 5.14
5.12 5.15
5.12 5.13
5.11 5.12
5.11 5.10
5.11 5.09
5.10 5.07
5.10 5.05
5.10 5.03
5.09 5.02
5.09 5.01
5.08 4.99
5.08 4.98
5.08 4.96
5.07 4.96
5.07 4.95
5.06 4.94
5.07 4.94
5.08 4.94
5.09 4.95
5.08 4.95
5.08 4.96
5.08 4.96
5.09 4.98
5.10 4.99
5.10 5.00
5.10 5.00
5.11 5.01
5.11 5.02
5.10 5.01
5.09 5.00
5.07 4.99
5.07 4.97
5.07 4.97
5.07 4.97
5.06 4.97
5.06 4.96
5.06 4.95
5.05 4.93
5.05 4.92
5.05 4.91
5.04 4.90
5.04 4.90
5.04 4.89
5.04 4.88
5.04 4.87
5.05 4.87
5.06 4.87
5.06 4.88
5.07 4.90
5.07 4.90
5.07 4.91
5.08 4.93
5.08 4.95
5.08 4.96
5.08 4.97
5.07 4.98
5.08 5.00
5.07 4.99
5.06 4.99
5.06 4.99
5.06 5.00
5.02 5.01
4.94 5.07
4.90 5.17
4.95 5.26
5.12 5.30
5.38 5.29
5.60 5.30
5.61 5.23
5.41 5.25
5.17 5.13
5.11 4.61
5.14 4.44
5.08 4.49
5.09 4.54
5.11 4.72
5.11 4.86
5.09 4.87
5.08 4.86
5.08 4.85
5.08 4.85
5.07 4.85
5.07 4.84
5.07 4.85
5.07 4.86
5.07 4.86
5.07 4.85
5.07 4.85
5.07 4.85
5.07 4.85
5.07 4.85
5.07 4.86
5.08 4.87
5.08 4.88
5.08 4.89
5.08 4.91
5.08 4.92
5.08 4.93
5.08 4.93
5.08 4.94
5.08 4.94
5.08 4.95
5.09 4.97
5.10 4.99
5.11 5.01
5.12 5.02
5.11 5.02
5.11 5.03
5.11 5.04
5.11 5.04
5.11 5.04
5.11 5.05
5.11 5.07
5.12 5.08
5.12 5.09
5.12 5.10
5.13 5.11
5.14 5.12
5.13 5.12
5.13 5.12
5.13 5.11
5.12 5.09
5.12 5.08
5.11 5.07
5.11 5.05
5.11 5.03
5.10 5.01
5.08 5.00
5.08 4.99
5.07 4.97
5.08 4.98
5.08 4.98
5.09 4.99
5.10 5.00
5.11 5.03
5.11 5.03
5.11 5.03
5.11 5.03
5.11 5.02
5.12 5.02
5.12 5.01
5.11 4.99
5.11 4.97
5.11 4.97
5.11 4.96
5.10 4.95
5.08 4.94
5.08 4.94
5.07 4.94
5.07 4.94
5.06 4.93
5.06 4.93
5.06 4.93
5.06 4.93
5.06 4.93
5.05 4.93
5.05 4.92
5.05 4.92
5.05 4.92
5.04 4.92
5.04 4.92
5.04 4.92
5.04 4.93
5.04 4.93
5.04 4.92
5.04 4.91
5.03 4.90
5.03 4.89
5.04 4.90
5.06 4.93
5.09 4.97
5.11 5.01
5.11 5.01
5.11 5.02
5.11 5.01
5.12 5.00
5.12 5.00
5.12 4.99
5.12 4.98
5.12 4.98
5.12 4.98
5.12 4.98
5.12 4.97
5.11 4.96
5.10 4.95
5.09 4.95
5.09 4.94
5.08 4.94
5.08 4.93
5.07 4.93
5.05 4.94
4.99 5.00
4.92 5.09
4.93 5.22
5.02 5.30
5.23 5.33
5.51 5.29
5.66 5.28
5.57 5.23
5.32 5.24
5.14 4.85
5.17 4.43
5.10 4.46
5.08 4.50
5.10 4.63
5.09 4.80
5.06 4.87
5.03 4.84
5.03 4.86
5.03 4.89
5.05 4.92
5.08 4.96
5.09 4.96
5.10 4.93
5.10 4.91
5.10 4.92
5.10 4.92
5.10 4.92
5.11 4.92
5.11 4.93
5.11 4.93
5.10 4.92
5.09 4.91
5.09 4.90
5.09 4.91
5.09 4.91
5.09 4.93
5.09 4.94
5.09 4.94
5.09 4.94
5.09 4.94
5.09 4.96
5.10 4.97
5.10 4.98
5.10 4.99
5.10 4.99
5.10 5.00
5.10 5.01
5.10 5.01
5.10 5.02
5.10 5.02
5.11 5.02
5.11 5.03
5.12 5.04
5.12 5.04
5.12 5.03
5.12 5.03
5.13 5.03
5.13 5.03
5.14 5.04
5.14 5.04
5.15 5.07
5.15 5.06
5.16 5.08
5.17 5.13
5.14 5.13
5.13 5.11
5.13 5.10
5.11 5.08
5.11 5.07
5.10 5.06
5.10 5.06
5.09 5.05
5.09 5.04
5.09 5.04
5.09 5.03
5.09 5.02
5.08 5.02
5.09 5.01
5.09 5.00
5.08 5.00
5.08 4.99
5.08 4.98
5.08 4.97
5.09 4.96
5.09 4.96
5.09 4.95
5.08 4.95
5.09 4.95
5.09 4.95
5.09 4.94
5.09 4.94
5.09 4.94
5.09 4.94
5.09 4.95
5.09 4.97
5.09 4.98
5.08 4.96
5.08 4.96
5.09 4.97
5.09 4.98
5.08 5.00
5.07 4.99
5.08 4.99
5.08 4.99
5.07 4.98
5.05 4.98
5.05 4.97
5.05 4.97
5.05 4.97
5.05 4.97
5.06 4.97
5.05 4.98
5.00 5.02
4.96 5.16
4.95 5.35
5.03 5.45
5.20 5.46
5.45 5.33
5.60 5.17
5.55 5.11
5.34 5.18
5.17 4.86
5.18 4.41
5.15 4.42
5.12 4.48
5.15 4.61
5.14 4.79
5.11 4.88
5.08 4.85
5.08 4.85
5.08 4.85
5.07 4.86
5.07 4.88
5.07 4.88
5.07 4.89
5.07 4.89
5.07 4.90
5.08 4.91
5.08 4.92
5.08 4.92
5.09 4.94
5.09 4.94
5.09 4.93
5.10 4.93
5.10 4.94
5.09 4.94
5.08 4.95
5.08 4.94
5.08 4.94
5.08 4.94
5.08 4.94
5.09 4.95
5.09 4.95
5.09 4.96
5.10 4.96
5.11 4.97
5.11 4.98
5.11 5.00
5.12 5.03
5.12 5.05
5.12 5.07
5.13 5.08
5.13 5.09
5.14 5.10
5.14 5.11
5.15 5.13
5.15 5.14
5.15 5.14
5.15 5.14
5.15 5.14
5.15 5.13
5.14 5.13
5.13 5.11
5.13 5.09
5.11 5.08
5.11 5.07
5.10 5.06
5.11 5.05
5.10 5.03
5.10 5.01
5.09 5.01
5.10 5.01
5.10 5.01
5.11 5.00
5.12 4.99
5.12 4.98
5.11 4.98
5.10 4.98
5.09 4.96
5.08 4.95
5.08 4.94
5.07 4.93
5.07 4.93
5.07 4.94
5.07 4.94
5.07 4.94
5.07 4.93
5.07 4.93
5.07 4.94
5.07 4.94
5.07 4.93
5.07 4.92
5.07 4.93
5.07 4.93
5.07 4.94
5.07 4.94
5.07 4.94
5.07 4.95
5.07 4.95
5.07 4.94
5.07 4.95
5.08 4.96
5.08 4.97
5.08 4.97
5.09 4.99
5.06 5.04
5.00 5.15
5.00 5.35
5.05 5.49
5.19 5.53
5.41 5.39
5.61 5.22
5.59 5.09
5.41 5.19
5.20 5.03
5.17 4.56
5.16 4.52
5.12 4.56
5.15 4.63
5.15 4.79
5.12 4.86
5.09 4.84
5.09 4.83
5.08 4.83
5.08 4.83
5.07 4.82
5.06 4.81
5.05 4.82
5.05 4.82
5.04 4.83
5.05 4.84
5.05 4.86
5.06 4.88
5.07 4.90
5.08 4.92
5.09 4.95
5.10 4.96
5.10 4.96
5.10 4.95
5.11 4.94
5.11 4.94
5.11 4.95
5.11 4.95
5.10 4.95
5.11 4.96
5.11 4.97
5.12 4.97
5.12 4.97
